1,-4.908327,-0.481862,9.391899,15.103019,11.541302,1.196291,9.807765,9.099620,7.361614,0.891991,-5.411381,-7.751014,-4.229822,5.148881,15.581358,25.463452,34.590569,40.157671,42.359274,45.989434,50.941747,45.309340,26.184870,9.860516,6.827977,4.878472,2.129528,-4.688922,-5.911034,0.765117,12.241375,16.919498,15.501156,13.587924,14.481281,17.982605,23.193170,25.214145,15.646589,0.691451,-4.650434,-0.278346,2.508318,2.110044,0.327198,-1.439973,-5.921556,3.208658,8.922384,5.923750,0.417201,0.907506,7.399764,11.299405,8.512200,-0.355742,-9.897962,-13.807656,-14.177664,-13.500471,-15.068208,-20.372640,-25.405174,-20.256852,-8.418351,-2.579980,-5.735156,-0.965898,2.703179,3.268236,4.325498,-0.128739,-12.198097,-23.086114,-25.096232,-22.231798,-24.896051,-33.292121,-41.123025,-41.391658,-30.900797,-17.653087,-8.551049,-4.597071,-2.493406,-0.542175,3.076559,7.759039,5.205525,-0.986828,-1.420974,-2.399984,-7.527039,-15.005433,-23.338574,-27.329980,-19.383280,-4.902218,4.109356,4.647477,4.108072,9.286956,17.379838,22.582312,17.189867,0.097880,4.436851,-2.976524,-7.897591,-16.332325,-26.087044,-31.268414,-29.183450,-18.639519,-8.544342,-7.205998,-10.732925,-8.033919,2.981859,16.204886,26.425274,25.132767,13.416742,4.266211,2.269812,3.215817,5.433293,-0.501334,-6.057595,-6.234546,2.568586,10.452406,11.317340,11.763627,16.091315,24.300255,32.690096,36.160278,28.110030,15.938365,11.644075,12.025732,9.781679,7.910033,5.908681,1.375276,-8.378608,-2.083401,7.249761,9.727240,5.655932,3.943275,9.297256,15.026421,10.839878,-3.852690,-17.541025,-21.414285,-19.161040,-19.069266,-24.426345,-32.519055,-34.533573,-25.155469,-11.669703,-3.060627,-5.989681,-4.590636,-2.648568,-0.366955,0.350616,-3.699544,-10.921221,-13.718293,-12.294726,-14.754568,-23.701947,-33.541062,-39.476185,-38.111655,-29.451875,-21.101307,-19.864475,-21.545959,-16.950392,-4.482464,2.617424,5.429758,-1.420178,-12.435662,-16.720064,-14.876849,-14.409571,-16.621877,-20.817503,-26.100275,-22.874106,-10.142998,1.388961,4.717596,6.138646,11.947765,20.940522,27.012402,19.558806,1.475049,4.483578,3.455352,7.835155,6.819385,-2.495826,-13.014626,-15.741439,-8.280977,3.461762,11.681486,12.272606,9.029234,9.945180,17.313946,22.728727,16.882408,5.567560,1.876442,4.900996,3.432846,4.155137,-6.242812,-16.120777,-18.976815,-9.809007,4.184528,11.505634,12.856106,14.437695,17.752092,23.100934,29.285793,27.708173,20.069513,18.271175,26.814447,35.100539,28.730583,12.205627,3.126638,-3.742256,12.383042,21.402039,22.021995,21.050562,20.195786,22.166106,24.970355,24.217762,17.317954,8.880952,5.417178,7.037448,6.052981,-1.624610,-10.383309,-11.610703,-4.493979,1.280077,-1.174922,-4.218655,-2.717521,1.089039,4.997111,7.602678,2.401629,-9.710236,-18.537202,-22.783636,-25.553980,-26.552747,-28.984521,-33.553947,-32.365734,-24.524649,-16.735512,-12.203200,-10.432638,-9.528804,-3.696723,3.343990,9.507468,1.856301,-9.613417,-13.305801,-11.325167,-12.176043,-16.063159,-21.991457,-26.166085,-19.192401,-5.575971,3.477430,5.861815,
3,12.760204,12.990342,12.304399,5.413147,-3.372245,-8.640215,-9.178803,-4.875651,-0.618006,-0.792717,-1.686234,-3.487609,-0.256150,3.711137,6.209097,0.232504,-13.923921,-24.665513,-26.697652,-27.425759,-30.655290,-34.091730,-35.840589,-35.307399,-28.697708,-20.117076,-17.671074,-20.865280,-21.405278,-13.596652,-1.644992,5.568881,-1.669854,-15.130642,-21.021617,-18.551334,-17.128773,-22.063342,-29.864877,-34.243646,-25.510347,-7.076112,2.147493,-1.851534,-2.585630,8.632329,19.589032,20.470728,15.163226,8.051899,2.321676,8.609346,7.474573,2.676084,-4.184793,-5.906877,-3.189144,3.169263,12.669028,19.010652,24.194446,33.220526,41.388804,45.198981,45.550547,39.442771,26.274697,14.745145,10.052702,7.695723,4.272328,-2.232608,-10.792270,-17.621347,-9.912884,8.740349,21.945857,28.011422,30.445092,31.255189,30.450297,26.739268,20.031215,15.735514,16.161797,16.319957,12.220141,5.572752,-0.711551,-3.921859,0.852992,-6.411545,1.165533,4.940955,5.020776,4.811440,8.619778,15.953016,20.218775,14.925080,7.180357,3.693442,-0.626421,-9.669575,-17.725947,-21.985050,-20.935975,-11.367395,-0.567563,1.275694,-2.425030,-3.367830,2.197355,11.619451,18.097024,14.628694,0.613138,-9.850904,-10.464628,-8.929160,-11.545554,-19.314790,-24.537769,-21.015310,-11.848151,-7.236944,-12.082254,-19.284556,-16.944238,-7.461593,-1.136826,5.206327,-1.516979,-8.674203,-11.072828,-13.620835,-18.926713,-22.899461,-23.248586,-22.584114,-18.016582,-9.257049,-2.117091,-0.908806,-0.744815,1.961738,6.597186,12.247336,12.297467,5.132333,-0.563836,5.953318,4.440083,4.372749,2.151820,-4.122327,-9.449455,-3.929461,6.237608,8.851560,6.712048,12.018569,22.770461,28.866895,26.906879,19.589252,9.112680,2.075658,1.776505,3.013366,0.984206,-1.708765,-2.460046,-0.984954,7.918198,15.751158,13.915728,8.313772,8.647206,14.018004,18.228195,16.379863,7.175146,-2.883763,-6.394619,-5.755122,-10.162921,-15.815610,-16.510732,-12.545779,-0.418191,-5.580015,2.372188,-1.313409,-4.935161,-1.491165,5.320750,7.303025,-2.341618,-17.110170,-22.799329,-18.805495,-16.724762,-23.752915,-33.885427,-38.417452,-35.043821,-22.359042,-7.257296,-1.632434,-4.077976,-9.952963,-1.422136,9.160918,13.097698,6.690003,-2.260068,-3.850100,-1.277358,-3.638778,-14.330960,-29.350163,-40.192295,-39.852913,-30.227214,-21.310031,-18.795833,-18.978714,-15.352399,-7.710234,-3.145188,11.459071,7.122050,1.592307,-1.735999,-2.969170,-4.713986,-10.677707,-18.168083,-18.893362,-8.062294,8.615859,23.331320,33.473793,36.532455,33.395953,31.952402,34.389382,30.393931,17.552549,3.951191,9.443158,7.420552,8.254055,8.043006,3.386470,-1.816769,-1.068214,4.530332,9.476760,14.368649,21.503256,31.677515,42.188023,45.931044,36.702499,22.697960,16.912653,15.941450,10.578867,2.819066,2.613743,-2.656207,-0.831664,10.392210,18.820401,19.558031,19.110352,23.882746,33.880713,43.909869,50.175937,44.384747,28.542230,17.654410,16.527406,16.467425,11.280761,3.273790,-0.847030,4.724839,-7.802344,-5.289641,-8.848098,-5.972270,3.643650,13.205839,19.520849,15.495613,-1.362546,
3,-3.637341,0.527574,4.794269,7.046103,7.565934,5.136125,1.238540,3.917730,7.433372,7.370374,1.232210,-6.977623,-7.855612,4.101766,21.098033,32.136712,34.321310,32.655323,31.542224,33.185461,37.988450,38.154575,28.587182,17.489574,13.465013,12.616713,4.647843,4.940901,-2.600013,-1.587964,5.379545,12.104942,13.290579,13.338724,17.551552,24.631140,32.579459,40.098372,41.289621,32.054829,21.195492,18.712975,20.708508,19.383185,13.937958,7.973637,2.990887,-7.195977,-5.819454,-2.238226,1.351949,3.055635,4.277728,7.523459,11.298406,5.908493,-8.940002,-17.840439,-19.185817,-19.668767,-21.181547,-24.716041,-28.063753,-23.915810,-12.562953,-5.395539,-4.403539,-4.809324,1.863597,8.272856,9.217216,7.495544,0.406820,-8.249856,-9.775267,-6.070067,-7.934782,-15.169806,-22.175393,-26.951661,-25.398583,-16.615989,-10.603562,-11.160834,-9.287191,-4.181864,-0.243932,6.940724,6.715892,-0.891305,-9.284403,-13.567213,-12.043828,-9.918619,-12.996246,-20.481653,-23.280075,-11.597040,8.461631,19.789820,18.081114,14.828799,16.925861,21.264987,21.038560,12.638663,0.257074,2.825794,0.310833,-2.621332,-4.671786,-3.141699,-5.132323,-7.844996,-2.881145,4.457714,4.569972,-0.646075,-0.492224,10.529630,24.717492,24.769268,8.882764,-5.044316,-4.714372,2.770093,2.306473,6.122992,-1.608141,-5.661812,-1.535499,7.573187,14.466492,16.846513,21.615185,33.874274,47.925366,56.769863,53.408973,37.643702,23.574853,18.403015,19.928561,21.151644,16.172191,7.189904,4.104252,-5.755088,3.970874,6.082211,3.983372,3.979148,5.774669,9.075415,12.087220,9.816277,1.569139,-4.847272,-8.725664,-14.058372,-21.537355,-29.354191,-32.800076,-28.665823,-17.641860,-5.918226,-2.984573,-8.063371,-4.462935,3.496761,13.017645,19.201905,15.851993,7.170626,3.060797,3.425778,0.269121,-7.605333,-19.593456,-29.990825,-28.892720,-17.894123,-8.189716,-7.573875,-11.740674,-9.583878,-1.396948,3.336239,-0.486648,-8.947862,-14.153595,-13.610310,-14.024741,-19.603891,-25.755036,-31.785720,-32.103756,-19.717226,-7.634484,-5.364147,-2.315103,4.603492,11.082217,18.411383,22.681033,16.680947,1.100637,5.473943,7.272290,11.981282,13.501237,10.132362,1.174743,-3.171656,6.092995,18.668391,22.254085,19.849482,21.753836,27.266245,29.385647,26.410818,19.640366,11.772733,6.506186,5.038821,3.568560,6.353005,-4.380784,-9.746491,-2.942873,8.231141,14.076445,13.293746,14.383554,21.546174,32.981704,42.990019,42.670774,34.423393,28.247062,25.940729,22.403099,14.732627,5.827518,0.485721,3.204933,-8.393033,3.145711,5.475370,2.303789,4.839336,11.790912,19.367958,23.680462,16.838963,1.654557,-8.961096,-11.695769,-13.736664,-18.270405,-24.283042,-31.360037,-32.986272,-22.446039,-9.123043,-4.300398,-1.754649,0.606858,5.454479,11.083653,11.389673,0.667691,-12.687282,-21.480367,-25.516822,-25.902029,-26.541500,-26.440870,-24.205894,-17.342446,-8.056518,-5.354215,-10.641757,-16.025474,-13.411809,-2.307312,4.086014,4.979280,-1.712661,-9.394614,-11.871668,-11.549201,-14.032874,-18.928640,-25.742738,-30.181695,-23.352329,-8.461746,3.082658,
3,-14.476343,-8.915534,0.985971,-5.635399,-3.008444,-1.402995,0.983674,6.454557,13.212918,13.262299,4.206526,-4.750291,-9.903744,-12.049132,-14.581453,-18.795397,-24.785349,-29.145382,-23.469256,-14.450413,-10.781979,-7.856759,-3.367237,-4.373666,2.030909,6.987951,4.093726,-4.455522,-12.063566,-16.034187,-19.871174,-24.178311,-25.959380,-30.018150,-35.658376,-32.783796,-22.398123,-13.805046,-10.908226,-11.511292,-11.017841,-6.031434,-1.755598,6.516500,-6.354268,-15.412889,-20.270893,-25.240468,-28.534460,-32.266383,-38.550414,-37.001406,-23.034882,-12.367042,-10.414767,-6.295614,6.872173,21.369670,28.577263,27.474656,18.440862,8.154207,2.792328,4.386173,0.189093,-11.181668,-20.525062,-19.140098,-7.325851,4.018537,8.593854,10.900809,14.840037,19.312088,21.917429,23.756439,19.429406,8.736528,4.477909,8.853554,12.963374,9.607180,1.984686,-6.065407,0.623678,13.632315,20.364301,17.723659,14.514643,14.741739,14.609666,16.423381,19.188076,10.709183,-6.407623,-14.856429,-12.431076,-10.525161,-14.332037,-21.944811,-24.256342,-15.059244,-1.845883,-5.521998,-11.788229,-22.069745,-25.465124,-17.272759,-1.690843,7.082631,2.949875,-4.486689,-3.624422,0.139534,-7.391742,-22.114944,-31.826537,-33.622754,-25.699595,-11.252822,-1.277960,-0.770294,-1.824870,-5.053716,2.761113,8.915113,4.705881,-5.068897,-10.011447,-12.723894,-17.508260,-22.866451,-28.500254,-35.711334,-37.901221,-32.971314,-25.822870,-22.157000,-22.274670,-21.976695,-17.763735,-8.636295,-2.694722,8.680676,-3.824369,-8.856391,-6.022258,-4.529280,-8.985223,-16.798314,-21.077247,-14.631188,0.130213,12.196824,16.258023,19.002690,25.819207,32.295454,37.818803,41.676117,33.753747,16.537531,6.012789,7.729078,6.816689,3.120767,-3.756927,-12.014848,-8.951676,6.033674,17.542045,19.374028,20.729957,28.909899,39.413652,43.540736,38.990387,29.561558,21.352906,21.262798,22.889301,14.930183,1.182909,-2.610190,-3.188903,9.835123,19.568511,19.418203,17.291452,19.395824,27.039196,36.429753,37.675992,27.686713,16.371024,10.338335,7.998362,2.961121,-6.763071,-14.163595,-15.029534,-8.249672,1.087505,-3.949365,-3.202417,-1.302173,2.151811,4.260144,5.323612,4.143181,-4.779999,-14.444591,-14.449062,-10.491684,-11.470526,-19.183454,-25.628126,-26.701991,-21.702285,-11.426029,-3.470028,-1.930869,-1.904922,-3.796438,5.101977,11.368013,7.502229,-0.294668,-2.821821,-2.178215,-3.962675,-10.873859,-20.310256,-26.070180,-24.251771,-15.652986,-8.171600,-8.105204,-10.551197,-8.106791,-3.469006,-1.234667,-2.400405,7.968300,-1.763723,-10.033540,-12.949007,-12.118424,-15.050544,-22.554580,-25.840207,-16.217567,1.102726,12.609579,14.491424,9.836204,6.231380,11.663920,22.420304,26.786514,18.548037,8.889865,5.596488,5.772173,-3.331553,-13.756170,-16.105080,-15.382038,-13.191150,-9.136883,-5.224067,0.042097,8.456041,14.511816,15.603099,14.623182,10.364974,3.220996,-0.116619,0.743872,2.593818,3.224176,0.525506,-2.538557,-2.110342,8.470113,23.311127,32.021339,31.209711,29.185523,35.858371,47.138162,49.935115,38.459758,23.722923,15.635747,8.409668,-3.443575,-13.811944,-20.183105,
3,21.055513,14.365972,12.419623,21.322022,31.378943,33.696375,26.280522,10.937802,-3.425151,-7.701493,-4.384166,-4.265900,-9.539215,-14.696417,-10.829607,0.369329,-8.196832,-3.346346,0.776648,4.476735,8.658912,15.228592,17.791614,8.754254,-7.576775,-16.394309,-14.290732,-15.257967,-25.087472,-35.570234,-39.596769,-34.257110,-20.540812,-9.636945,-6.334092,-4.920346,-3.533699,3.816366,8.052987,6.368800,-4.543652,-21.491909,-33.683586,-38.826368,-40.527998,-44.996276,-51.639045,-52.064190,-42.779634,-29.093326,-22.113243,-19.947382,-14.203760,-6.090408,-0.815370,-1.086699,7.298601,-5.105044,-11.230742,-13.487478,-17.284742,-22.732530,-27.441345,-30.922210,-27.386659,-13.846752,-2.515071,0.695276,4.070653,12.196891,19.359288,22.342609,22.731082,13.808396,2.757704,3.961616,8.595311,5.945604,-7.052171,-17.596531,-16.286154,-3.819889,9.103232,14.883989,19.822964,28.920533,38.976859,44.591886,45.765331,42.496682,33.685187,23.929857,19.629456,16.982502,11.487260,4.241745,-5.348059,-2.831300,8.124675,15.224868,12.674545,10.179239,13.944758,18.777178,18.982856,14.568422,7.740791,-1.692844,-8.925005,-13.347928,-19.853563,-26.033573,-26.779333,-22.381925,-14.132145,-3.220495,-4.935465,-7.642147,-9.411935,-3.743510,7.664564,14.813842,12.406008,0.942874,-14.073610,-22.041355,-20.358129,-17.421550,-19.229087,-21.678053,-23.065604,-18.888736,-11.444281,-9.228910,-9.939124,-5.571259,-6.223017,7.516468,14.415841,7.573904,-7.610405,-17.438002,-17.209643,-12.925923,-16.187266,-29.893914,-42.345925,-42.943164,-34.385300,-28.471795,-30.201908,-32.274681,-26.888944,-15.243306,-5.936156,-4.165659,6.039238,-1.627226,-3.834842,-1.590320,-6.800717,-18.273445,-23.916270,-24.237313,-19.545058,-9.048351,1.743596,6.621204,4.574527,1.993245,5.666667,15.283728,22.432988,18.802631,9.080462,3.853910,9.430537,6.274707,-0.628745,-8.277310,-11.268601,-3.700361,9.529532,17.523052,20.382017,26.708084,38.802740,48.067294,52.002873,47.610414,33.190662,19.044164,13.671264,13.972102,11.146610,3.694509,-5.702709,-3.851203,8.003453,20.267273,23.846609,21.548148,20.778917,23.446282,28.457952,31.621973,23.446736,6.640971,-5.986245,-11.125498,-12.167025,-11.400724,-12.416147,-15.302505,-12.648663,-0.343143,-6.676641,-2.263193,-0.934045,0.410074,2.868522,6.040743,3.426285,-7.875202,-18.163957,-21.240099,-23.303625,-28.154404,-35.392169,-41.616518,-42.826906,-35.022640,-20.302882,-8.066640,-4.112769,-5.539971,-5.798487,0.420215,6.037054,-0.053330,-16.556271,-27.477065,-29.120962,-32.393150,-41.898754,-53.942822,-61.130316,-57.566109,-45.454973,-32.301577,-22.510477,-16.486115,-11.732812,-5.854767,-2.256049,-2.840598,9.534736,3.365845,-4.432018,-7.167537,-6.649906,-8.988845,-18.394600,-30.577948,-29.850207,-13.923235,3.290560,12.678222,14.526239,15.320539,21.846493,30.188906,30.832018,23.959500,15.754457,4.499421,3.576414,-0.241925,-4.115115,-12.739983,-17.413324,-10.431911,4.607509,16.808207,17.673468,16.006593,20.310888,25.689671,27.046261,23.483981,13.006153,0.716099,-3.282863,-0.887419,0.505739,0.899912,-4.057971,-3.633865,-0.182569,5.799285,
3,36.095848,41.403088,48.017486,49.047758,39.902795,25.591658,20.323572,26.007926,26.754267,16.772297,5.471872,0.363000,2.655838,-6.246786,-1.905646,-4.236404,-4.036231,2.597937,8.469404,10.181720,5.038687,-8.655631,-21.096906,-22.480540,-18.801658,-21.655105,-29.835440,-36.536935,-36.153569,-25.079025,-9.106689,-2.729649,-6.340686,-5.990461,0.320540,10.761102,13.024535,-0.695929,-21.507135,-32.315991,-34.629461,-37.454556,-43.998328,-52.467859,-56.870257,-51.112651,-39.102181,-28.645998,-22.251252,-17.225099,-13.374687,-8.807160,-3.129651,7.400445,2.014158,-10.577579,-19.581508,-20.004800,-16.555052,-18.140297,-22.069005,-19.750088,-12.892906,-3.607266,7.096571,12.707888,14.615511,19.907806,28.772676,34.697560,28.169432,11.574798,3.399698,4.876166,9.998949,9.853699,5.545370,-0.621005,-2.440330,9.092554,25.182859,31.535846,29.956816,29.851107,34.124088,41.581152,46.527717,39.669215,23.511094,12.058812,8.917837,8.493642,3.391704,4.711216,-0.331466,1.290249,8.477287,13.630438,12.350344,10.037493,10.792214,16.214671,26.204856,34.162586,33.587498,24.579040,14.236476,10.158875,9.945110,9.293857,5.803591,0.572583,1.598903,-4.840947,0.443535,-1.936507,-3.876548,0.728214,8.682861,14.392763,13.463579,4.501265,-4.487923,-5.997426,-4.220376,-10.549596,-23.477593,-35.596558,-40.698362,-33.074556,-17.416367,-7.914696,-5.260119,-6.654083,3.229981,11.539067,10.872748,3.730790,-4.286845,-8.279987,-8.348256,-7.591053,-11.007557,-20.696720,-31.157261,-32.387661,-22.086161,-14.150761,-16.479211,-21.569013,-20.217418,-12.721422,-0.877770,5.190282,0.855754,-11.204285,-14.396981,-12.129839,-14.210729,-20.447884,-27.849905,-33.125758,-28.884776,-14.436664,-2.491492,-0.359701,-0.752105,4.420116,14.445408,24.411845,26.607133,15.118602,1.533214,5.057756,4.645050,0.142375,-7.751669,-15.738654,-20.520331,-14.098626,0.124344,10.546278,13.564678,14.476851,15.079902,19.670737,26.846050,24.402331,10.335857,1.542691,2.718683,5.459467,3.460459,0.426724,-8.212826,-12.281719,-3.973733,11.317504,23.998510,29.275944,30.556602,33.147415,36.555437,37.287852,32.651961,24.355183,15.705052,11.909214,11.275422,8.811537,1.025527,-7.174540,0.619510,-12.370041,-0.505166,0.857788,1.325686,5.905937,13.406509,18.835935,18.303324,7.718374,-6.808624,-16.666776,-24.344577,-36.329907,-46.010020,-51.071543,-51.900468,-40.182152,-20.701308,-8.342005,-6.687667,-2.924453,-3.038737,0.574830,7.315184,7.981365,-0.527470,-7.412048,-10.472975,-13.310732,-14.225668,-14.618004,-17.687823,-18.535070,-13.859549,-10.360923,-11.238707,-14.492271,-14.220837,-8.023476,-0.199111,8.199313,-0.524657,-16.233598,-23.433346,-19.830142,-14.230641,-13.741911,-18.471444,-21.027153,-11.517381,5.549098,16.763074,17.314900,11.594490,9.791314,16.194399,21.492323,19.573221,11.124775,2.334219,3.652027,4.710394,6.688360,4.888865,1.714865,2.669332,8.755244,15.975580,19.533319,19.731428,21.372867,24.760576,29.297476,34.186465,33.130414,23.532164,15.894525,16.320271,14.912143,2.872845,0.654006,-11.996190,-11.012487,1.609540,14.074432,20.886836,22.651505,
3,-7.370240,-2.595811,0.357234,4.692481,9.313862,12.625659,12.732514,5.239437,-8.348190,-19.124604,-21.283655,-21.118801,-24.223105,-30.889225,-37.209416,-33.275522,-17.578974,-5.410789,-4.561564,-5.021479,-2.527259,0.708356,3.254137,4.004592,-3.345811,-16.002649,-24.971527,-31.658077,-41.467947,-49.006799,-48.280297,-41.794107,-32.053891,-20.965297,-13.433962,-13.065504,-15.565520,-15.039582,-8.793237,-2.132002,8.080055,-5.903277,-14.972678,-9.632683,-1.088204,-0.444539,-5.507379,-11.282814,-10.377343,2.602124,17.848258,23.953308,23.609095,24.807006,29.837995,34.992574,34.060815,24.632343,12.096339,4.141535,3.306204,4.251241,0.824565,-5.874296,-12.345905,-13.890925,-7.310113,-0.204323,1.625491,0.178274,-0.447130,3.848022,12.462368,14.094445,0.942682,-12.294595,-9.319166,0.367084,3.562162,-0.336032,-3.363127,-6.949227,-3.386564,4.731571,9.112144,13.762372,21.989724,32.001920,40.506925,45.212947,38.728439,22.462092,8.722837,4.119841,2.162505,-2.439535,-6.476411,-8.738027,-8.014052,0.906071,-9.928084,-6.079134,-3.117016,1.563636,6.968610,14.004126,19.376840,13.593858,-0.637260,-10.708491,-13.911343,-20.036847,-30.375554,-40.417525,-47.052332,-43.769050,-32.256254,-22.202017,-15.593906,-6.618981,-4.103024,-0.704066,0.781480,1.148178,-6.709546,-20.897398,-27.221211,-24.886939,-26.000649,-32.568520,-38.796832,-41.991966,-37.460399,-27.108698,-20.443517,-18.371596,-16.999754,-13.134892,-6.583986,-3.154090,9.606183,-2.263088,-9.238387,-9.424847,-10.027992,-12.053745,-12.008434,-14.898801,-15.432006,-3.315635,14.642297,25.333338,27.748598,26.178742,28.713988,36.144102,37.258398,25.645730,12.094499,4.692643,7.793909,-2.548137,-10.558692,-13.536874,-11.681936,-4.793269,3.929592,8.786956,10.778976,15.105639,21.766765,29.761998,39.290802,42.952461,31.846069,14.070534,7.024567,9.606687,9.315217,2.948277,-3.271927,-8.778169,-0.665128,12.070452,17.131976,15.423002,14.147233,14.808526,17.910884,22.458460,21.455554,8.906613,-3.483768,-4.410847,0.530263,-1.755405,-11.462672,-16.886214,-12.020561,0.039898,-6.386181,1.903115,4.573930,6.732301,12.884683,21.637956,24.699429,16.876845,5.578387,1.412680,0.588796,-4.083741,-11.294956,-20.034416,-28.691229,-28.554041,-17.611035,-6.249928,-2.057972,-3.321949,-10.564161,-2.590265,7.661808,14.693433,10.106271,1.102281,-1.416270,-4.046800,-16.686398,-33.131819,-43.379474,-47.325424,-43.865372,-32.494656,-23.408246,-26.200735,-30.666340,-24.098893,-12.391840,-6.238239,7.330638,-3.181764,-8.732396,-6.930692,-7.386594,-17.010552,-28.313532,-33.607016,-29.603008,-15.514037,-2.753160,0.666038,2.629435,10.222376,19.329670,24.035585,25.023848,20.777646,10.579621,4.411873,3.629088,-4.216213,-10.168445,-10.925530,-15.185332,-16.945661,-4.704268,9.341146,11.292933,9.553491,13.425268,20.010759,22.412500,15.633073,3.675100,-3.358755,-1.265789,5.356739,8.411611,1.901643,-4.506613,-5.254474,4.517620,13.714995,14.243243,11.708225,14.216073,22.673187,29.486239,31.062167,25.808183,12.131767,-3.059329,-10.757087,-13.453215,-13.539153,-12.806071,-14.544869,-13.346179,-0.200362,
2,-0.319273,-9.745573,-16.866881,-21.487417,-24.611390,-27.142998,-29.686418,-31.345803,-31.025277,-25.728931,-21.760820,-22.624956,-25.925311,-26.065808,-18.450324,-6.382683,-1.166660,11.055975,-1.291737,-9.055009,-11.843947,-14.969269,-21.642319,-29.575069,-34.680124,-30.170730,-15.960780,-2.264813,7.001974,16.923728,23.883935,26.465415,28.450320,26.420135,18.055670,9.237065,4.543782,3.377523,-1.262553,-9.929294,-16.118699,-14.926736,-0.849350,15.317538,20.378023,15.436214,11.296231,16.162202,25.138257,30.128532,26.037158,14.868265,8.225980,10.314421,13.237700,10.199920,-0.394825,-0.993761,-5.406887,1.091885,4.905035,4.835154,4.684940,6.357198,11.454840,20.280882,25.138447,18.030763,6.661162,2.533078,0.050050,-7.384281,-15.066172,-19.291778,-20.057152,-13.658248,0.409083,-4.093212,-0.186213,-0.882161,-0.882132,1.212831,5.601728,2.583598,-7.342469,-13.277333,-13.621801,-12.676618,-15.442471,-23.719981,-28.909702,-24.512119,-14.127647,-8.856624,-8.699317,-6.955915,-2.726530,-3.985347,-0.522209,2.107425,-2.298592,-14.142381,-20.126024,-17.051568,-12.721013,-14.836307,-23.399348,-31.411971,-32.575949,-25.092990,-15.364729,-9.892732,-8.978485,-10.723398,-9.928802,-2.695944,-1.825990,7.231757,-5.613480,-10.195969,-9.421364,-9.295816,-10.825979,-12.219016,-10.482614,-0.524982,14.845134,23.118451,21.385139,17.134819,19.856555,28.038851,32.669651,28.336328,18.425687,9.223963,3.916816,6.096457,3.430291,-3.292451,-10.670035,-14.100807,-9.183198,2.284268,12.902970,16.474183,20.199076,28.578702,35.014001,33.505790,24.754761,13.161481,7.826383,9.349770,10.031809,8.172530,2.371824,-3.636056,-5.739049,1.658232,8.561024,9.174846,8.705492,12.759037,21.441833,30.360510,30.021979,19.133427,7.902320,1.136405,-2.056297,-3.967484,-7.188577,-12.810721,-15.624781,-10.921347,0.609268,-6.879423,-1.131324,1.249913,2.962989,3.506769,0.480286,-4.917247,-13.486428,-23.127664,-25.441162,-25.726920,-32.084725,-37.614146,-38.214530,-33.584997,-21.624435,-9.631501,-5.404612,-5.641948,-2.641448,-2.673972,9.137205,18.703805,17.025255,3.601071,-5.869133,-5.685647,-8.748656,-17.758237,-24.514358,-26.216875,-23.165522,-14.159919,-3.299561,1.116181,-2.811937,-8.083032,-6.596090,-0.949966,-1.743385,7.396564,-8.044935,-16.963354,-17.566898,-17.664322,-21.564932,-24.278595,-23.615746,-17.387389,-5.505106,3.318941,5.672006,9.540751,19.811249,31.668975,37.398807,31.085024,17.211299,6.460704,4.015705,-4.000551,-8.977031,-15.960323,-19.547330,-17.334720,-4.718927,8.903858,8.537690,-2.213125,-9.944031,-10.950213,-9.126596,-7.967845,-12.068360,-15.522271,-10.123442,-0.465466,4.258337,2.154920,-2.268488,2.047475,5.013204,11.087846,14.273105,12.470710,9.182403,7.109945,8.855103,15.819655,23.105385,20.514079,14.847523,14.407502,12.995797,6.614183,-0.835571,-5.551706,-7.732472,-4.876130,1.519047,-4.243392,-9.197398,-14.097519,-9.842521,1.469031,8.738778,6.768575,-1.139507,-8.283179,-11.959923,-13.866996,-14.701421,-16.459986,-19.239242,-18.435499,-11.444823,-5.763039,-4.185720,-3.308197,-1.525547,-3.268736,2.249744,6.697414,
2,-34.257774,-24.100910,-20.120834,-20.520672,-16.603478,-8.972231,-3.529835,5.826789,-4.788385,-19.833648,-23.117252,-15.047856,-11.834536,-20.286778,-32.414485,-36.527976,-30.337985,-18.055664,-7.192584,-1.560732,0.927486,4.859243,12.621295,20.299978,19.081208,9.350480,1.592872,5.000264,6.416104,0.538715,-12.033393,-19.701878,-18.668568,-11.435469,-1.504767,3.521169,3.239784,5.248330,12.543868,19.823261,26.783175,28.920074,20.630221,10.409673,8.454282,9.059691,2.921337,-1.265326,-8.569292,-8.678809,4.613328,19.714497,26.232239,30.274254,37.248396,42.762671,46.925224,48.544343,37.828448,21.286094,16.025958,17.056847,13.087686,4.927518,-3.114494,-5.729075,0.793164,-3.687603,3.709824,9.427631,11.570925,11.445086,14.855765,19.408888,16.610661,5.367567,-2.813627,-2.425872,0.938165,0.186105,-3.974146,-6.734390,-6.786142,-3.420625,0.071230,-0.501217,-3.128310,-5.834040,-2.452730,0.206181,3.437231,1.334954,-10.306117,-22.791440,-27.126458,-22.716598,-17.967260,-23.783818,-37.071611,-44.235941,-32.182070,-10.215217,1.359447,-2.063203,-5.288238,-2.020680,2.034505,3.925298,-2.455027,-10.719031,-10.870690,-7.214260,-6.854278,-8.995562,-12.043221,-14.602651,-12.579539,-3.779868,4.290081,6.923734,10.614212,18.754337,26.136629,27.753303,22.296269,11.657134,1.427197,8.743214,12.035085,7.864065,-3.070941,-12.271297,-16.038637,-9.474882,3.717760,13.036781,14.579366,16.642392,26.522414,39.415664,47.018047,42.625132,32.632151,27.833996,25.025215,17.100008,4.252227,2.687703,-8.983756,-11.646996,-0.600427,10.557395,12.327755,11.711773,17.210401,27.424413,35.354403,38.200775,31.863745,19.243328,11.539341,12.051397,13.778901,6.821048,-5.923180,-9.955014,0.924097,-6.749224,0.156654,3.926382,9.867829,17.089266,24.899373,30.507241,26.722380,13.554719,1.214612,-2.987158,-2.539379,-6.130403,-14.448146,-23.880085,-30.713255,-28.634248,-17.129211,-8.283843,-6.483398,-8.650922,-3.708791,3.530565,13.368224,16.905597,7.744446,-2.513114,-6.364605,-10.407177,-18.337603,-25.852270,-31.747176,-37.417919,-36.459698,-27.167307,-19.435128,-15.257129,-10.726865,-6.137469,-1.681655,1.664396,-4.737465,-11.475102,-9.151944,-2.571577,-2.337748,-7.954360,-12.025481,-11.055339,-5.548329,0.490990,-0.042109,-1.752519,4.254696,14.074305,19.800902,23.428915,23.952597,15.566028,2.963119,8.030694,7.529151,7.613325,1.484189,-7.457516,-7.411281,3.323153,13.445795,18.156386,20.254402,24.139038,32.209205,43.363525,50.200325,44.417628,31.413156,21.284322,16.928225,12.241653,2.521074,-0.539004,-11.953233,-12.096361,0.539137,16.561023,24.777284,28.396136,35.026015,39.875576,41.853689,41.969434,35.532101,22.851184,9.936381,2.897590,-0.855094,-7.011376,-12.060768,-10.592588,0.104037,-8.272160,-1.926106,1.623999,4.184716,8.063049,14.766454,20.702844,19.380597,7.708560,-5.403944,-9.247113,-9.610660,-17.083810,-24.455294,-26.813347,-26.845708,-20.739611,-10.781787,-5.458461,-4.755353,-6.453541,3.526225,15.052175,23.423219,21.838407,9.396933,-4.401852,-11.858442,-14.273161,-16.446167,-22.577437,-31.066772,-35.213782,
2,9.011919,3.493601,3.905450,8.946697,16.416429,23.613595,22.836998,14.485294,7.956987,7.850430,8.563820,2.995199,-4.657552,-6.796707,1.475293,-5.363577,3.266643,4.097274,3.132681,3.977539,6.236841,10.915901,11.520362,3.356196,-6.270286,-10.152436,-10.083258,-12.055413,-16.761208,-24.292599,-30.841185,-25.598207,-12.254547,-5.000726,-3.926901,-7.196402,-3.855393,-1.155403,0.601983,-2.784717,-10.616871,-13.195729,-10.322417,-10.297930,-14.123124,-19.798716,-30.825275,-38.503216,-32.232804,-22.614139,-20.347164,-19.931654,-15.967219,-9.153298,-1.789160,4.971253,-3.696936,-16.572138,-18.360052,-10.466701,-5.998440,-11.561955,-20.864267,-25.912730,-21.615038,-10.279224,0.186340,4.572940,6.871517,13.772671,22.266655,25.343378,20.592403,10.202946,1.463875,5.974851,3.743527,-7.399701,-20.755223,-27.323680,-24.705974,-10.503273,10.282982,23.751070,27.198982,26.224421,25.624792,28.497197,31.138435,25.944995,14.313052,6.038466,3.516779,3.443212,2.712664,0.848424,-8.217162,-11.864419,-3.691020,5.505412,7.527298,8.177103,13.757332,21.970528,29.719265,33.106152,25.033825,11.204949,1.522212,-2.011675,-2.693977,-1.721942,-1.492800,-2.603760,2.147983,-6.869103,5.028693,4.084495,-3.099087,-3.619120,2.027660,5.144853,1.436407,-7.593378,-17.839842,-22.797961,-23.462335,-25.527192,-31.986374,-38.433339,-36.361157,-21.462501,-4.929652,-0.254491,-3.928499,-4.828916,1.095274,6.177193,7.713533,3.300975,-5.463810,-13.284152,-16.963379,-16.904811,-17.011758,-23.387516,-31.535357,-33.258536,-24.860279,-12.543785,-8.612221,-13.068722,-15.216387,-10.258280,-1.297427,11.073122,4.566630,-9.172120,-18.453969,-22.490370,-27.393393,-34.075726,-40.350685,-42.832214,-34.534889,-15.873922,2.434835,14.174889,20.429105,22.979700,26.708242,31.695652,28.522200,14.767503,3.710527,1.045571,2.447206,1.681570,0.951276,-0.641028,-3.392660,2.499093,14.036972,17.423743,12.962196,9.755141,10.605404,16.315829,25.889276,26.528613,14.736723,2.216496,0.170832,3.302640,1.014833,-1.340462,-10.354823,-10.319559,4.671543,21.524890,28.747081,29.344906,30.425338,36.395530,45.862813,48.234690,34.918834,15.523085,5.455446,5.324083,5.637320,-1.196364,-9.868331,-9.869791,1.508196,-9.079914,0.684662,8.869923,14.883292,20.632671,26.626447,28.173501,22.183212,9.565464,-0.969347,-4.510310,-8.445993,-19.264440,-31.453164,-37.899147,-37.688834,-29.608131,-16.742405,-7.976476,-6.094624,-4.687975,1.256304,9.573408,16.361152,12.317370,-0.460078,-10.273306,-12.924392,-12.415378,-16.548262,-24.924998,-30.147490,-29.117589,-22.337090,-16.507731,-13.331187,-10.909073,-9.042938,-6.134265,-2.184469,6.317406,0.691254,-9.861948,-18.148588,-18.775541,-13.950177,-13.580367,-17.674485,-19.041412,-13.290541,-1.731781,7.324444,8.867188,8.084982,11.265833,18.797223,24.766103,20.358896,7.661494,0.259260,4.874274,1.701258,-3.423090,-9.901383,-15.936369,-20.030930,-17.888091,-9.211016,-1.703016,-0.767548,-1.108217,4.471220,14.566851,24.074614,25.290287,16.409491,9.227689,8.740183,8.542116,4.228468,1.506095,-1.544384,-1.817963,3.789723,12.383064,
2,29.985171,30.042475,20.631464,10.138857,6.450897,6.353351,2.482643,0.063913,-0.426958,4.916745,15.601961,24.835854,27.225803,27.579405,29.304465,29.808997,31.301221,36.189554,32.082616,14.189218,-1.081631,-2.620732,2.781302,4.534048,1.947271,0.630918,-5.167766,9.551089,20.407065,19.906939,13.457825,11.867180,17.542805,24.892848,26.225802,14.650512,0.376171,-3.887672,-0.631117,-0.043909,-6.715438,-16.234735,-19.890475,-13.670977,-5.364197,-3.157735,-5.359800,-3.695920,1.245388,8.264495,14.261909,14.038288,6.494440,-3.468671,-9.349921,-10.148020,-11.461512,-16.788768,-24.627985,-27.477182,-20.434197,-11.896687,-12.662124,-18.627794,-15.090794,-2.548033,0.029310,1.123276,-3.049698,-9.491443,-14.603746,-15.288344,-12.646923,-14.981111,-25.592472,-35.482507,-34.252648,-20.604252,-7.338604,-5.156908,-8.260289,-5.749789,3.473636,11.409116,10.055869,-1.086798,8.708329,-3.275733,-11.606253,-15.791020,-22.438254,-31.656611,-34.355189,-26.843529,-15.031624,-7.929916,-3.149304,4.598851,14.002731,22.750050,27.328055,22.023526,11.422771,4.911624,4.375449,5.399131,2.761069,-9.395972,-17.334614,-14.354430,-5.455042,2.863877,5.602600,4.361347,4.240276,8.539488,14.859020,17.898846,13.458874,5.638946,2.038834,4.458241,6.096800,1.254072,-3.570455,1.022636,-9.872189,0.397170,5.791691,7.619122,10.687701,15.506155,21.283716,25.830119,23.155610,9.670954,-7.112564,-17.483131,-19.728406,-19.635511,-22.091033,-31.381017,-38.790966,-32.305838,-16.410045,-5.087448,-6.757950,-2.136926,6.922086,14.317604,18.748122,17.912125,7.208086,-7.165528,-13.510252,-13.727620,-18.519160,-27.986391,-34.730823,-33.753950,-21.457251,-4.942185,1.689809,-1.862685,-5.101060,-4.426683,0.908742,3.227533,4.032695,2.224433,3.602980,6.268600,3.121588,-2.137729,-4.608992,-7.391809,-7.185754,-0.190368,3.194843,-2.129593,-8.163112,-6.005115,-0.854965,4.288008,6.524513,-0.744706,5.015632,-5.476459,-5.866158,-3.853776,-3.339750,-3.724646,-3.909165,3.805852,14.319417,17.130393,14.437489,15.939254,24.234075,30.620173,30.195601,26.458238,18.305791,9.035791,5.145589,3.932358,2.405964,-3.016777,-5.930599,-3.231132,6.185969,18.725006,26.690236,27.485864,30.216035,38.384827,39.896245,35.054219,29.162594,24.625128,23.545490,22.527251,20.473887,17.088771,9.375174,1.036264,-9.343565,5.495735,20.649073,23.726836,22.840021,27.800241,34.019730,34.611346,28.888580,17.865557,4.357039,-5.921567,-9.254211,-12.824191,-22.714157,-31.306105,-32.881372,-28.820642,-18.103937,-4.710621,-5.316244,-2.351217,3.320422,14.097549,23.379059,20.463867,5.650916,-6.560821,-7.872339,-6.284599,-10.598521,-19.514987,-28.334835,-29.058856,-18.487795,-7.322347,-6.963159,-13.210822,-13.565877,-2.728811,-1.145780,5.241734,-4.249706,-18.425202,-27.189913,-30.149046,-29.207851,-27.671615,-32.445652,-39.635302,-39.545923,-31.482885,-25.451568,-24.057356,-24.305632,-23.201780,-17.951175,-7.359185,1.468833,-1.272468,1.986811,-1.106442,4.083719,3.054895,-6.995459,-14.570034,-13.771671,-6.003362,1.631745,4.430348,3.688984,2.104031,3.571707,10.788062,
2,-1.633749,-9.062122,-8.877943,-7.286528,-9.593507,-13.204820,-16.826720,-21.965776,-20.328874,-10.123219,-2.056333,-0.436060,2.929436,12.531669,22.061830,27.910787,25.269085,12.926944,0.574262,1.918645,-1.302009,-7.586676,-13.338027,-16.258927,-16.952441,-13.921828,-6.070548,1.997740,3.479174,0.269693,-0.134970,-0.339281,-1.547913,-3.765743,-5.197853,-5.349529,-3.126264,0.966243,0.222086,-0.861352,-5.815216,-1.070857,10.679437,18.643713,21.130354,24.548069,32.405894,40.413189,43.979635,39.015228,30.130280,22.335414,14.341564,7.959971,4.502179,1.180039,-3.894297,-5.708377,2.550551,-8.276640,2.135021,7.050698,8.673883,9.808383,13.658330,15.928191,5.522770,-13.152781,-23.792955,-23.491887,-23.543343,-27.840721,-31.177041,-31.044943,-28.236683,-20.244129,-12.458759,-10.771655,-6.273508,-6.230726,1.281845,0.941942,-2.157542,-6.823837,-18.564281,-29.886316,-34.997477,-37.705382,-42.717728,-51.442281,-57.686869,-53.659377,-41.367739,-31.819935,-27.823985,-23.087948,-13.819912,-6.127999,-3.620358,6.243212,-4.087983,-13.976919,-17.130408,-18.155588,-20.259929,-22.651232,-26.237634,-28.727605,-21.229958,-5.153840,5.491255,5.695496,4.048703,10.640355,22.059584,30.095174,26.635563,13.868840,3.882747,4.437548,-0.797009,-10.785541,-16.025441,-13.714116,-6.648988,4.372498,14.352870,16.194629,11.400242,11.072140,19.212714,30.124315,34.409249,23.569775,6.408102,-0.573608,3.426753,6.011240,0.881855,-1.825115,-6.065538,-5.733187,1.174629,7.560637,8.127603,9.278322,16.115627,22.442376,23.561462,21.075802,12.088342,1.302053,-3.080069,-3.655003,-6.619708,-9.671116,-12.606143,-12.621679,-1.014595,-7.960828,0.672645,1.276128,-1.344128,-1.481381,3.871606,13.222576,15.579784,3.752004,-10.351464,-15.720786,-15.345592,-18.014967,-24.617450,-31.841027,-35.273127,-29.300621,-16.909819,-8.186467,-4.415742,-2.507743,1.278112,6.602645,5.563896,-4.140063,-13.211118,-14.051116,-11.461857,-11.445090,-12.102516,-15.035781,-19.146472,-17.936119,-10.606193,-3.758101,-2.593184,-4.412720,-3.317922,-0.909931,0.610175,8.618552,3.850994,-2.308874,-6.071744,-10.948920,-18.752324,-29.294502,-39.388620,-41.548474,-32.688489,-17.123719,-3.769855,2.456780,3.939225,8.359882,14.300512,16.742240,13.865547,7.350274,1.075620,7.149820,3.709209,1.223348,-2.707418,-7.482914,-8.103136,-1.468263,6.821342,11.065125,12.562335,16.912021,26.613028,33.463991,30.863334,17.709265,4.299775,1.932632,7.505385,8.715357,1.359645,-2.786699,-2.841518,1.020698,9.008180,16.929512,20.293626,25.709802,35.787665,42.337180,43.168650,38.592716,27.220351,17.062861,13.331878,11.539364,10.697604,6.819207,-2.282893,-5.895446,1.995123,-7.291271,-2.796117,-1.701058,-0.100218,5.512688,14.744354,21.901894,17.392843,6.325167,0.507262,-0.952035,-5.043446,-15.957248,-29.083268,-35.810882,-31.629010,-19.126115,-6.690201,-1.908812,-4.069027,-7.333613,-1.497860,3.786550,6.216829,1.590268,-10.195760,-18.243786,-17.556242,-19.035454,-27.583629,-36.502856,-42.895096,-43.362176,-35.905788,-25.627479,-18.728654,-16.310565,-13.974313,-9.720846,-2.850953,3.828353,
2,20.057078,22.411985,26.545686,32.861562,39.562935,40.853065,31.035142,15.412287,8.787546,12.863886,16.244196,11.931282,2.027865,-4.648438,-1.442362,12.334511,24.989942,25.232122,20.769675,23.011651,29.967531,38.147226,41.461073,32.019837,16.134711,5.317311,2.679682,2.634289,-1.105977,-9.427801,-15.017448,-11.160758,1.956847,-4.590812,-2.550299,-3.200756,-0.643237,5.021242,9.691698,5.067190,-7.153175,-13.170240,-11.484796,-11.097573,-16.309242,-26.720408,-36.131609,-36.843312,-24.355914,-9.069734,-3.485017,-5.401931,-3.520563,-1.716774,-0.577845,-2.762208,-10.275362,-21.222832,-28.410150,-29.742857,-31.626491,-37.966582,-45.968647,-49.338182,-42.280657,-27.401513,-15.506156,-10.999954,-8.688234,-1.876275,6.430689,7.327473,0.008947,7.239953,0.261858,0.526359,5.227990,3.760828,-5.881515,-14.305901,-12.219674,-1.430664,9.852804,15.721905,16.667307,17.579169,21.847135,29.060328,34.607350,31.976277,20.054655,6.829502,3.787302,3.585072,3.967872,-3.920923,-14.577603,-16.098369,-2.579341,13.583445,16.294033,10.356543,12.275168,21.354173,27.797895,27.410737,17.797169,4.261726,-3.190996,-2.556335,-0.129571,1.394077,0.419449,-4.396088,-5.272730,-0.488802,1.657989,1.470169,2.550495,4.001962,5.627804,8.831500,8.716773,-1.212403,-11.751807,-13.296960,-10.843133,-12.185337,-14.718326,-17.836596,-21.834380,-15.405653,-0.244126,-5.600763,-0.609582,4.167558,13.033416,19.891000,21.043569,15.094637,5.147980,-1.892363,-4.322084,-6.836602,-12.031063,-18.300332,-25.038996,-27.841354,-20.701424,-12.112933,-8.569320,-5.463732,-3.189027,0.436336,4.689172,6.758666,1.140490,-8.969747,-17.176502,-21.884290,-23.597680,-26.121295,-29.959804,-31.317925,-26.500417,-13.712080,-2.257752,-1.942307,-7.070653,-6.247732,0.021485,4.931994,0.378766,6.333085,-5.999491,-8.432410,-6.072131,-6.325536,-10.499938,-16.203087,-19.343174,-14.528838,-4.869169,2.026288,5.347526,10.684078,21.325007,34.358911,41.273912,34.657660,18.997328,7.179613,4.090731,6.984714,1.138011,-9.294155,-16.411424,-13.813702,-2.601166,7.525724,12.066222,16.219285,21.883569,25.257420,29.438873,35.125642,34.615116,25.904359,17.590103,12.968743,8.336339,4.088610,0.920935,-4.729457,1.173653,15.829420,24.545756,20.330925,15.193547,21.242600,32.287413,37.837676,35.203432,23.395080,11.323376,4.199433,-1.165282,-10.058945,-20.569375,-27.884037,-28.090038,-17.174131,-2.122714,-4.575019,-3.145286,0.548173,6.604948,11.024766,10.207502,2.553185,-9.038001,-17.665704,-16.929406,-13.528412,-17.461848,-26.728658,-35.227597,-38.357231,-34.315932,-27.501872,-22.113030,-14.947181,-3.401898,-2.831973,2.327717,6.743032,7.613428,0.738459,-7.982216,-10.448828,-8.061496,-10.620222,-20.024884,-26.475238,-24.470912,-15.411401,-8.196068,-7.824137,-10.794697,-10.706695,-7.358935,-3.150079,-1.578644,10.655062,-1.156380,-7.110028,-4.111171,-2.165617,-5.879703,-10.260305,-10.114850,-1.451320,11.321736,21.895194,29.559348,33.403908,34.917986,38.790098,41.108156,34.859463,20.630715,6.607989,4.376750,5.986719,10.520411,3.633015,-6.173289,-5.796441,4.465499,12.714337,
2,-22.684712,-19.688473,-18.108763,-10.851805,-4.223873,0.968708,4.019559,-2.677742,6.023502,-3.282465,-0.334357,5.163348,1.005922,-10.511619,-18.094520,-16.248289,-8.978701,-5.391800,-3.493905,4.008389,13.808210,21.098403,27.671532,27.419875,20.535422,15.709879,11.634658,4.200886,2.200000,-7.807717,-13.134580,-11.176038,0.972507,15.415693,21.958199,24.404731,26.460025,29.128840,30.615956,30.326165,26.264276,19.335102,12.543468,7.894200,2.692126,-2.957923,-4.251121,0.217360,-7.047793,1.977714,14.134190,22.431635,24.080558,24.791980,29.477437,36.948980,36.719179,22.601122,7.408420,1.855203,2.756127,2.726370,-1.718365,-8.361849,-12.387326,-10.277514,-5.514603,-2.880255,-6.083160,-8.651588,-4.332186,6.572615,12.660411,6.828837,-5.724432,-15.601668,-20.805089,-26.236848,-33.299034,-36.893659,-37.722657,-37.887883,-32.191101,-23.133987,-17.018124,-14.944999,-11.716001,-4.532418,0.141278,6.385955,1.275468,-5.791159,-5.814850,-4.696480,-6.236869,-9.536781,-15.896920,-23.217928,-21.700384,-11.144803,-3.451632,-4.121246,-4.553954,-0.349990,6.890482,13.667374,11.480673,-0.269561,5.062624,6.206638,10.768148,9.844273,4.131866,-3.272494,-8.272507,-5.572158,2.324276,7.712225,9.886819,12.142882,16.274934,24.377183,33.243520,33.267524,20.342451,7.961238,5.116499,3.200523,3.359842,-0.813582,-1.546035,-0.132076,8.533840,22.057349,28.444176,27.900127,31.131082,40.942987,48.941853,46.733746,34.724785,23.021135,18.129006,19.354645,18.404339,11.684407,5.101199,3.161096,-6.981154,2.450487,12.456860,14.545934,14.426216,19.706760,23.797173,22.107618,14.848825,2.532090,-7.530714,-9.527139,-8.544151,-13.868133,-24.184876,-34.979583,-40.936857,-33.440709,-15.774549,-4.221187,-6.302679,-10.063012,-6.799746,0.284092,5.585544,2.201722,-10.070176,-17.732871,-16.688986,-17.141051,-24.091490,-32.742620,-39.396648,-36.655663,-23.921637,-11.296419,-4.181734,-2.779180,-2.690227,-0.616214,5.354807,5.499356,-2.965941,-16.647870,-26.253570,-29.490530,-28.866590,-26.389940,-27.669125,-29.013038,-21.030926,-6.832386,0.472633,-0.426171,-1.339447,1.521800,6.746217,12.022100,12.237394,0.479693,6.350585,-1.719608,-1.578662,-3.231038,-8.981519,-13.635223,-15.497601,-12.274447,-2.371896,5.903565,8.545100,10.245514,14.197258,17.292417,17.722716,12.979512,4.453796,-0.863814,0.616932,2.985911,6.708342,-0.621716,-7.052930,-6.079902,4.202739,16.700329,25.818158,31.561456,36.135393,41.945063,51.295480,56.591568,50.338156,36.039974,26.201643,23.927673,22.022458,18.390273,12.035271,2.561479,-10.600718,-2.799843,6.691444,9.682188,9.182044,13.701284,23.150808,27.242149,18.487480,-0.400377,-16.507946,-21.021094,-18.425024,-17.904268,-22.542687,-28.223467,-27.829110,-18.141442,-7.841599,-5.110035,-2.171433,-4.573899,-2.904988,2.331136,5.830213,1.887891,-10.100275,-19.938815,-19.832340,-17.185542,-19.303191,-22.690127,-26.051261,-28.591574,-24.416110,-15.829980,-10.338355,-8.346468,-5.959608,-1.583128,1.174571,1.948792,-5.935753,-16.084079,-20.701326,-18.892758,-18.163755,-25.919816,-37.366546,-40.709662,-33.054983,-21.308427,
2,-8.105377,-3.530620,0.299848,6.961013,-2.439920,-13.867132,-18.928298,-18.831495,-19.485205,-23.098316,-29.180124,-30.840337,-21.589073,-7.136861,1.305354,4.226211,4.913936,3.956337,3.940804,6.354310,6.183409,2.814237,2.132510,3.298894,3.311249,3.856175,-0.266635,-8.157611,-11.117316,-4.546442,3.254180,4.783580,4.840647,6.924121,10.032597,16.364517,24.018171,24.891694,17.183064,10.490103,8.310469,4.941664,1.381028,2.983159,0.423754,-0.914680,5.870443,16.281706,21.821689,19.592956,16.298053,22.139500,35.819785,44.641363,37.806644,23.317995,16.677731,17.988116,18.651355,14.369596,6.544923,0.579356,3.674849,-3.923938,-0.258224,-2.591345,-3.319539,1.661223,6.255243,9.567100,10.101653,3.164046,-2.440289,0.094376,0.474059,-9.194919,-22.805938,-33.952074,-38.126097,-28.720471,-12.227349,-3.738574,-3.345679,-10.760838,-3.888548,3.759731,7.685111,5.988992,0.273071,-2.460648,-4.909842,-13.671863,-27.743723,-42.622091,-50.603283,-46.483253,-36.957591,-32.321512,-33.869855,-35.697076,-30.297245,-17.364043,-6.190758,2.930343,-4.094282,-13.365770,-15.391148,-14.677740,-17.733163,-22.265327,-28.682437,-34.492989,-31.305772,-18.229867,-9.774642,-9.849761,-8.565173,1.868882,16.141875,23.842990,20.861121,10.284875,1.602573,5.055773,7.275985,5.851409,-4.417486,-14.630391,-12.887160,-1.787819,9.967427,18.378193,21.843902,21.163787,22.236881,27.262014,31.337811,27.762688,17.634846,13.252274,14.112740,11.313795,2.652767,-1.021804,-7.712424,-5.571450,2.705629,10.123459,14.486824,18.200639,22.969947,27.999919,33.195845,34.063137,24.607321,12.634039,9.249043,11.458195,13.767465,10.882926,1.910760,-4.642753,1.928771,-7.254186,-6.290927,-9.936621,-8.687022,-3.137541,2.716755,8.881154,11.361299,4.263202,-7.906758,-15.841827,-18.534871,-19.378372,-22.264426,-27.084739,-24.530623,-10.892993,-0.062366,-0.328861,-3.582194,-5.617337,0.574970,4.397196,2.944252,-6.088987,-18.307675,-25.116989,-25.622124,-25.728281,-28.740666,-35.964485,-43.604933,-42.667196,-30.256442,-17.377819,-12.336452,-11.737438,-8.385847,-3.186717,-1.145052,4.034989,-5.014026,-20.200036,-26.529413,-21.408812,-16.745181,-19.145754,-24.718052,-26.469889,-18.409364,-6.344866,-2.485074,-4.238955,-3.115764,-0.025047,0.723363,2.819344,3.852483,1.112080,1.987146,2.747180,0.416337,-4.058570,-6.074318,-4.527669,1.184626,11.365822,17.019178,14.347951,11.555395,14.444755,20.819267,25.482153,27.336621,23.785858,16.433034,10.481297,6.433771,4.193558,0.363735,2.002672,-6.685887,-3.908506,8.039171,14.361531,13.362985,16.847958,25.620888,33.086212,38.148369,39.511788,33.980886,26.960062,25.553695,27.766135,26.901706,16.764700,2.259373,-5.310055,2.460598,-5.406514,3.320123,0.356465,-4.192754,-2.022487,6.472622,14.898254,14.360410,3.965421,-3.980052,-4.069012,-3.794121,-10.347703,-20.021737,-23.907853,-19.997333,-13.481110,-10.549762,-8.693515,-3.602238,-5.284151,0.830622,10.988899,13.487362,3.722713,-9.908321,-18.208977,-18.782454,-18.231905,-23.060434,-30.671088,-35.866857,-35.850663,-29.325363,-20.693743,-13.858512,-10.022305,
2,1.926384,9.451316,15.273313,12.000623,-2.158011,-15.193350,-17.395649,-15.654654,-19.759601,-27.099207,-30.561673,-27.334677,-17.705371,-7.460384,-3.185816,-8.146745,-5.523763,1.236120,12.232637,19.665718,13.435500,0.242331,-7.713220,-10.230359,-12.108063,-18.445072,-29.839884,-38.390755,-35.195688,-21.152437,-10.358498,-11.311110,-13.807252,-9.043637,-1.716719,4.001125,2.763587,-5.503424,-10.903130,-8.538910,-3.714302,-6.033011,-14.298901,-21.216001,-20.788505,-11.120773,1.282671,7.417136,8.577764,9.959528,12.457236,16.365528,19.978873,14.991576,1.097770,3.529997,3.573080,10.110322,14.341205,13.165092,8.981222,3.188703,2.186508,8.673470,14.848276,14.909463,13.755414,18.084352,28.294341,39.983280,40.148898,25.788756,9.700242,3.880572,3.926783,3.896666,-4.515628,-12.634261,-15.259223,-10.390707,-0.329113,6.824943,8.770628,10.306886,14.932431,21.845746,24.945077,19.428432,14.993575,15.138026,13.159054,9.153682,5.918680,1.850562,0.345591,-8.276213,7.637298,14.859209,9.499021,6.466783,14.173107,25.729169,32.946710,29.238048,16.116073,4.194256,-2.813350,-6.092105,-7.726785,-11.701574,-21.000064,-28.105255,-23.199551,-11.764761,-3.282097,-8.960199,-5.873187,-0.211233,7.127018,11.843167,9.239068,3.516837,0.278857,-0.372217,-3.733446,-11.901609,-24.473192,-37.944388,-44.311090,-37.968885,-26.113058,-19.738581,-17.740116,-13.112011,-3.148298,0.538903,5.879932,0.931385,-7.306279,-6.832599,1.952887,7.450648,0.861150,-8.715135,-12.177735,-7.026175,0.940024,4.921343,4.718263,3.531270,6.360852,14.307502,21.371712,15.753980,-0.945193,5.351981,7.235550,12.241090,9.265914,0.907062,-6.838705,-10.174912,-2.905376,11.765789,21.234165,21.095024,17.443327,17.473715,22.480509,27.957703,24.898964,11.897626,2.846691,2.838824,4.066354,3.395429,-3.637322,-13.644350,-15.925147,-5.579269,7.293664,10.393959,5.121854,4.877507,12.761002,20.072339,21.711437,15.978130,6.272164,1.793198,1.940800,0.014447,-3.386477,-3.562681,0.985033,-11.332028,-6.005691,-3.084402,0.439899,5.275847,11.332664,18.920165,24.148769,18.929504,1.674017,-15.905420,-23.395906,-25.983902,-29.755227,-33.195056,-36.987913,-35.517667,-26.267532,-13.220064,-5.357155,-5.883614,-5.025520,-0.230109,5.102155,9.870964,9.376165,0.117773,-6.404029,-5.288886,-2.136265,-4.545451,-15.815547,-29.745465,-33.333931,-22.779474,-11.980431,-11.634942,-14.240947,-8.896188,-0.198206,1.359062,-2.498728,-11.998605,-24.448068,-32.254875,-32.127045,-29.772845,-33.500793,-42.819650,-45.538418,-36.566335,-25.212871,-20.787728,-22.200832,-19.062334,-8.282608,3.227754,10.757941,8.996928,-1.166527,1.524581,5.309934,11.348070,10.540693,4.389449,0.995926,3.961649,13.088073,21.276581,21.228479,15.544993,12.927265,16.176349,22.793211,27.778722,23.833659,12.258704,2.754438,0.821343,1.459800,7.927748,2.948150,0.787022,4.043031,11.014457,13.999186,9.794696,7.798051,18.505888,34.214410,40.919377,38.016099,33.499427,29.563752,25.102994,21.310600,18.479539,12.602297,4.970877,2.276795,-5.690974,0.662074,6.722306,7.194475,5.783646,
2,-0.973101,3.635864,7.190467,11.277279,19.782408,26.791492,22.589701,10.461739,3.591837,3.151984,3.397156,-1.087110,-6.996504,-10.726678,-4.973250,10.768190,22.802079,24.632873,20.265046,19.603084,25.651481,30.814738,29.097360,20.103849,12.438709,9.906437,8.711527,5.458463,0.551724,-2.852204,-8.997691,-2.947930,10.903862,19.064799,19.742323,21.644206,27.978545,33.853762,37.478605,34.262142,20.913763,10.143177,5.760411,2.375810,-1.699966,-6.555941,-8.780825,-4.963016,1.709402,-5.287904,-4.616122,-5.240564,-4.458317,-0.966098,5.439746,9.163250,1.808834,-9.818689,-14.114112,-11.571822,-10.985804,-16.449631,-21.356464,-24.199043,-19.369694,-4.060316,7.437613,5.633044,-0.664648,-4.042803,0.763846,2.132483,-0.643975,-11.172786,-25.461378,-32.717340,-32.948420,-34.562511,-40.167651,-48.072015,-51.283908,-42.811763,-29.764131,-20.949685,-16.877209,-15.355598,-12.793855,-8.001089,-2.886512,10.351043,1.376019,-7.025172,-9.359773,-8.635486,-12.660474,-20.543372,-25.293288,-24.019813,-13.733020,4.256526,18.337765,22.499141,21.428597,20.613571,24.340994,30.197289,26.168366,13.539624,4.395946,2.925434,-0.182460,-10.081261,-24.673476,-36.561761,-36.748913,-22.737877,-8.131742,-6.233742,-11.247256,-10.775804,-3.823052,4.407192,7.210977,2.484208,-5.577350,-10.678076,-8.022489,-1.215254,0.238828,-1.017734,-5.588234,3.191423,18.826026,26.520490,23.579847,20.409250,23.913962,30.299355,34.670908,31.134200,20.094910,13.658813,16.831778,17.919765,10.528822,-0.034914,-6.765223,-6.955797,0.899752,-8.632359,-2.674972,0.998108,4.291203,6.208974,9.656430,14.838935,10.462216,-5.067633,-16.544141,-18.760456,-20.609340,-26.183163,-32.173899,-34.973120,-29.371996,-16.161289,-5.731351,-3.372121,-5.973125,-5.708831,-3.589184,-0.745259,0.018975,-8.200425,-20.407366,-24.805709,-22.899265,-27.491788,-37.686965,-44.688412,-46.799671,-38.524200,-20.265371,-7.826465,-9.310670,-10.721075,-5.460668,-0.432337,-1.638861,8.898074,-4.925422,-14.882286,-13.482114,-11.235049,-16.651795,-26.843614,-31.922339,-22.200377,-4.090712,7.193090,8.736874,9.125896,13.444818,19.277704,25.108019,28.818625,24.191781,12.309138,5.751743,4.658909,6.556222,0.251616,-9.952697,-14.354481,-6.951487,4.758548,11.177896,14.008834,14.153638,14.914582,20.893937,29.693961,33.016904,24.765001,11.740471,7.445515,11.382316,11.453035,2.859811,-0.717601,-2.506062,5.260348,16.984910,20.770956,16.321873,14.341089,17.932078,23.298354,28.043467,24.671002,14.984575,9.587833,10.084447,12.078117,10.672562,3.271526,-7.621226,-11.501911,0.333273,-4.006418,-0.771954,-6.815908,-10.536927,-2.233540,9.095852,10.852979,1.739702,-9.441975,-14.689910,-14.001813,-12.275246,-15.207618,-22.896187,-26.738049,-19.630146,-6.369255,0.648009,-1.474808,-4.133989,-7.651301,-4.843049,2.030167,9.870814,8.181641,3.465687,3.126289,2.967086,-3.307977,-16.094636,-29.488314,-34.384105,-24.976780,-10.760777,-4.530198,-6.178807,-9.500031,-8.486951,-4.432304,-2.928480,5.570025,-11.175349,-22.432036,-24.709136,-24.716261,-26.263533,-28.561589,-29.421589,-26.555211,-16.174664,-2.992680,
2,-7.713800,-3.778349,0.000846,2.518215,-2.131806,3.949101,-4.888321,-5.124258,-5.165784,-12.720383,-21.595956,-24.600820,-22.243714,-15.333802,-8.880675,-6.894349,-7.185278,-2.364342,10.057137,23.967406,31.354271,25.605098,12.706813,3.545904,3.008411,7.397481,5.040082,0.701551,2.690215,13.814615,28.283501,36.505823,36.090721,35.647516,41.885708,52.514959,61.845097,60.986102,45.548103,26.441373,17.976326,18.563511,16.113607,8.537426,3.845905,-6.234071,1.800964,13.264364,20.066039,23.016398,26.026343,31.007277,38.271099,43.030210,37.397509,24.686395,12.710771,4.485038,0.524099,-4.656640,-17.141272,-28.913389,-29.356080,-17.451931,-1.683029,-3.192743,-3.671815,-1.079142,5.183579,10.514662,10.312437,0.875252,-10.198524,-14.310497,-13.062247,-13.955323,-18.691244,-20.371496,-17.197526,-10.970747,-1.992531,1.335789,-2.487077,-4.062378,-1.191318,2.820161,5.505633,2.656358,-9.531771,-20.163031,-21.341864,-19.672880,-18.360850,-18.210714,-23.327572,-27.616689,-18.883490,-0.433562,10.227347,8.693330,5.858319,7.916088,9.060253,7.484270,0.581439,7.662893,0.854937,-3.350072,-8.061395,-15.688868,-25.242906,-31.134510,-27.775269,-13.477371,1.946396,8.682637,7.217348,5.635909,10.023085,20.063019,28.239230,24.434610,14.931425,9.611311,5.055269,7.870509,-2.232621,-8.687665,-11.794377,-7.852693,2.637256,8.075140,7.860420,12.792344,22.969941,31.292011,36.957125,36.163618,25.309583,13.992869,11.811079,13.761561,11.341413,6.147474,2.776329,-5.563029,-1.524979,7.765958,14.918327,15.141049,15.043421,23.335118,36.326187,43.127052,37.848514,22.201745,8.798292,5.350076,4.469389,-1.431103,-6.838363,-7.238983,-5.419182,-3.264809,-1.161343,-6.526346,-5.203618,-1.133991,4.782608,12.246432,15.957918,8.117695,-5.273414,-10.414386,-6.703992,-6.940792,-17.823137,-30.849159,-34.916771,-27.123663,-14.867301,-6.644922,-5.453536,-5.589922,-1.350627,1.384895,6.188064,7.354245,-0.320067,-9.238491,-10.704765,-11.222737,-17.196365,-23.229721,-24.126982,-20.992434,-14.430470,-5.745586,0.657618,2.074436,1.500064,4.229595,8.558020,9.580231,-0.108978,8.176234,3.205897,5.445582,7.389845,5.532825,-2.131762,-11.010633,-15.610941,-10.640285,0.393286,10.781268,16.714693,20.884133,28.579685,35.090976,33.907154,24.916892,13.308376,6.069311,3.886917,6.986768,-0.495317,-7.597305,-8.213605,2.661389,17.333297,25.707737,29.690322,34.286650,39.302297,44.042809,50.213697,50.820431,37.468431,19.563070,12.609660,14.613457,13.679652,7.613372,2.119676,-4.536035,4.682624,8.392898,2.497173,-1.801945,-1.601623,0.601203,4.809831,7.227801,-0.041103,-12.892849,-18.123153,-15.427477,-16.101022,-23.938731,-32.635282,-36.885089,-31.282299,-16.320791,-2.994173,-1.719037,-3.303699,-4.864081,-0.403876,4.773077,2.762795,-6.638845,-15.936102,-19.533369,-16.635171,-13.946161,-17.671117,-22.914940,-26.882654,-27.579400,-24.310437,-19.381139,-14.696997,-10.563611,-3.386698,-1.148091,10.695423,16.476973,11.894552,4.046175,-3.270124,-9.656281,-13.614207,-14.545780,-19.052846,-25.137211,-22.100648,-12.244885,-4.371612,-1.482472,
2,-6.409956,-3.035047,5.064801,10.584959,8.920808,-4.332254,-20.978802,-25.223376,-21.070478,-23.724560,-32.490022,-41.571206,-46.972387,-41.497773,-29.851497,-25.137618,-26.160111,-23.322871,-14.529706,-1.784339,4.125035,7.985576,-3.570024,-20.850588,-31.865371,-32.724056,-31.336754,-33.914004,-38.366773,-37.806454,-28.244868,-17.694260,-9.867304,-1.877095,7.062845,14.238570,17.335713,16.639481,11.034659,0.705609,4.721077,6.306896,5.475329,-3.375285,-12.446762,-16.441069,-13.360332,-2.606840,6.616951,8.708415,7.464752,9.682985,18.359955,29.092324,32.176566,24.408967,11.885624,8.202446,8.955145,4.139242,6.250848,-2.223492,-5.880687,0.480822,12.562503,16.965728,13.891757,13.641738,22.816694,38.817519,49.944966,46.799649,34.182028,26.592411,26.030944,22.197612,12.292229,4.114441,0.263717,5.139352,-9.751130,4.387597,10.859595,11.772795,12.835617,16.656973,22.446278,25.913451,18.468927,3.423655,-8.910890,-14.722706,-18.799259,-24.227480,-29.393759,-32.183946,-28.283344,-17.176709,-8.348248,-5.881617,-3.533037,-7.115933,-3.820489,5.450026,6.592275,-5.197144,-14.621695,-13.284901,-5.690340,-3.141648,-10.042508,-20.196656,-27.307873,-27.079988,-19.216871,-9.622438,-4.400644,-3.955485,-3.190997,-0.211257,3.762382,4.088194,0.883833,-2.555981,-4.036778,-7.764347,-15.844730,-21.184225,-21.589389,-18.167037,-10.724242,-3.268338,-0.906915,-0.747828,2.900809,9.130624,13.832979,17.798978,14.519462,1.485009,2.647405,1.061048,6.430998,10.157018,6.438713,-1.324477,-2.733280,6.411403,17.808490,21.456718,17.854638,14.300611,13.492803,18.629184,22.507526,13.925399,2.180168,-2.731006,-0.811170,1.636422,1.135389,-4.793277,-5.650628,3.565930,16.658975,21.831064,17.884730,15.522477,17.446777,19.660068,24.464749,25.363177,14.557665,2.450478,3.043836,10.639905,11.340800,5.348582,-0.734742,-0.307222,-6.125525,-4.006666,-2.099569,1.500764,4.899712,7.503040,11.116906,12.447868,6.202887,-5.110664,-11.684997,-11.911903,-14.782750,-23.488477,-32.119591,-38.166164,-37.117833,-25.963791,-11.992794,-4.293151,-3.323786,-2.820580,-3.107900,-3.289735,-6.070066,-12.652858,-19.942056,-21.341578,-19.255312,-18.287110,-18.840784,-24.120104,-30.628790,-28.470512,-19.148889,-15.167480,-16.929788,-15.039257,-8.099267,0.586864,2.681797,2.520947,-4.933072,-8.683958,-6.435603,-2.492092,-5.357704,-15.636913,-22.034385,-20.654979,-12.003744,-1.985925,-2.106953,-7.372454,-8.188242,-5.160322,-0.894887,3.401681,2.022808,-1.238265,5.510900,8.898309,10.677611,9.749986,8.316553,4.378368,3.036416,8.791604,17.944755,22.696602,22.047786,24.698844,31.350212,38.702216,40.255071,30.208875,14.663609,5.219131,5.675177,4.531359,5.703248,-4.391730,-9.723638,-6.289024,4.615511,13.893309,18.247639,22.681697,31.598593,41.801345,47.492872,45.775990,38.653403,29.627699,23.101346,18.776686,11.955934,5.341172,2.934349,3.437276,-4.705116,6.284071,12.097763,10.444612,9.233715,12.374614,21.577301,31.552218,30.110260,20.362775,12.621566,8.898896,6.207482,-0.339498,-12.228405,-25.145141,-26.575146,-16.103397,-6.714410,-2.592236,
2,2.875057,-1.265519,1.503893,10.379380,18.756701,24.631283,28.898214,32.752240,38.787759,44.198822,40.279120,26.321993,11.420419,3.967017,4.623667,-0.581938,-10.939874,-18.247924,-17.803895,-7.105624,7.249017,11.962124,8.435751,6.371912,11.072574,20.939658,28.575035,24.380525,10.757894,3.808852,6.535054,9.138096,7.619515,0.180791,-2.095307,-10.435424,-9.482572,-3.736946,-1.898721,-4.368059,-3.945100,1.370032,7.277233,12.176417,8.667517,-2.449514,-9.274705,-5.008065,2.550417,1.300771,-7.356954,-14.422689,-12.196345,1.222184,-4.621476,-0.812142,3.298961,12.617126,22.547954,27.197357,24.771561,17.177109,10.520860,8.509993,5.852010,1.254732,-3.973694,-12.524796,-18.389778,-11.059514,2.775448,6.824888,0.998916,-2.192028,-3.206595,5.751409,9.840951,9.561500,2.912654,-5.505860,-8.794183,-8.152315,-10.280116,-15.577300,-20.943433,-23.177930,-16.380050,-5.548899,-0.683422,-4.082402,-8.344462,-7.368062,-2.551494,-0.192887,4.506216,-2.608729,-6.294660,-7.862212,-13.122601,-22.887623,-31.769655,-38.381659,-39.537179,-33.850341,-23.935858,-17.509023,-14.985717,-11.082401,-2.016121,8.595491,13.834224,10.081279,2.617276,-0.577749,4.179075,2.324451,-2.845518,-8.329711,-11.127161,-7.237055,2.941253,13.308243,18.964219,20.709306,22.643444,24.666384,25.277686,22.876712,16.262626,13.734389,18.590757,21.430280,14.351299,1.251945,-5.480124,-7.656504,0.930288,11.781159,11.897185,3.279616,-1.370121,1.749578,8.440505,12.904633,6.444126,-9.438661,-23.141183,-25.460697,-20.294265,-17.438754,-18.090827,-20.046953,-16.003395,0.143781,-6.146654,2.934511,3.983537,8.505618,14.406345,19.591719,20.468153,11.542480,-1.478043,-11.285731,-14.072464,-12.229682,-12.648388,-19.319136,-27.332032,-22.676731,-8.042435,0.382110,-0.091384,-3.750745,-0.634988,5.668786,7.593637,-0.564944,-13.411551,-20.650865,-21.487646,-22.626733,-27.173040,-31.931557,-35.107340,-31.705515,-15.731273,5.010129,16.313375,15.073085,10.983822,11.140092,9.836340,1.066959,6.046126,-1.657052,-2.507317,-2.311852,-7.378223,-15.914391,-23.028710,-24.229935,-15.427223,-2.230139,3.951339,3.006823,5.425504,12.896156,21.407131,30.146355,32.301329,23.459127,11.606392,5.429340,6.166181,2.921400,-3.714592,-14.542238,-21.662111,-17.774909,-7.181470,2.117233,4.520080,6.825808,15.433001,23.940092,26.445356,21.846911,13.442712,7.830553,10.008060,14.072696,12.121753,2.752355,-3.728429,-10.031799,-3.882179,0.119545,-6.727423,-14.523790,-13.270164,-5.567057,1.885121,2.986068,-5.864412,-17.266403,-21.019875,-17.324684,-14.180566,-16.787141,-21.243907,-21.850240,-14.205393,0.491501,-5.132810,-3.140426,-5.380212,-7.454651,-6.166183,-3.417197,-5.210027,-15.546944,-25.030151,-25.061774,-22.043859,-26.378369,-34.267175,-37.512054,-36.614684,-28.276644,-14.499407,-6.084340,-4.032700,-3.145634,-2.842898,-0.574860,0.796777,-2.731278,-11.162274,-18.399411,-20.245832,-20.304622,-23.378798,-28.971308,-33.185023,-32.022736,-24.387158,-14.080910,-7.406528,-5.966453,-3.963030,0.001488,3.224951,0.205306,8.579376,-7.065846,-15.700314,-15.931967,-12.769287,-12.521306,
2,27.527711,26.044489,29.552328,36.540141,40.096305,40.408663,35.964513,27.050611,17.553164,8.157829,5.745818,0.306644,-6.139921,-10.789023,-4.235822,11.524506,23.996755,26.785688,24.696025,27.832439,36.199550,43.801919,43.844043,34.430349,25.065193,20.352852,14.497527,9.803333,6.374303,1.014383,-4.639331,0.505428,13.873747,20.273347,15.212337,11.599217,19.142881,29.452611,33.638088,28.009382,16.276964,7.751697,3.944842,-1.531944,-9.766605,-16.446687,-22.159341,-23.891316,-15.328965,-1.658241,-6.497092,-4.913090,-0.832211,8.146390,16.123869,14.901704,3.581701,-8.333995,-14.242898,-17.842168,-20.928609,-24.498662,-31.048399,-36.273519,-35.469343,-31.230811,-26.752478,-20.928511,-10.952690,-2.018399,-0.980592,6.405817,5.639969,-5.584179,-19.572821,-27.932294,-30.269076,-29.589776,-31.501133,-40.210010,-45.123387,-37.348360,-26.192133,-20.462021,-17.365439,-12.909903,-6.903030,-1.252529,2.733793,-1.751961,5.314940,-2.450071,0.293000,3.238012,-4.221564,-13.892647,-18.682549,-19.998979,-17.750047,-10.944268,-2.390561,2.001746,5.122911,12.062783,21.310793,25.355957,17.386874,5.691721,0.258259,2.173825,5.270471,-2.881223,-9.972630,-8.600116,2.639954,16.751204,22.837248,18.701681,15.348073,20.779966,30.500868,37.114251,35.523544,24.132132,11.543351,7.660490,7.486780,4.225401,1.279475,0.652065,-4.676907,10.753663,28.016517,34.919902,31.672452,28.483186,29.361511,31.217220,33.260492,29.001895,16.452379,6.423284,6.726333,7.673635,0.677685,-8.548636,-15.192065,-16.938951,-10.875261,-1.986576,-5.325382,-0.956674,6.509477,15.872836,22.233238,20.290592,8.744879,-3.503835,-8.155407,-5.709606,-5.066115,-14.224525,-25.284338,-28.244958,-19.805697,-6.765766,0.475721,-1.780250,-5.032590,-2.280110,-7.050943,4.893769,13.126144,9.148258,1.562431,-0.328763,1.577508,1.484342,-6.004889,-18.786539,-29.056674,-29.811076,-25.745231,-25.554328,-26.033257,-21.076603,-10.778641,-1.433339,1.265646,-4.375026,7.038416,-0.545158,-1.521149,0.807447,0.437336,-3.635087,-8.013740,-4.302866,7.892962,15.568836,17.619504,21.039365,25.422466,31.762496,39.252779,40.986275,31.955574,18.452894,9.970079,5.198594,7.627422,1.635631,-5.577048,-8.710118,-4.763312,2.163400,7.369802,11.655422,16.219526,24.761108,34.378888,39.971302,38.036495,29.472320,25.776331,27.445778,24.277604,14.168444,5.314621,2.712142,-5.160591,2.515861,14.500641,22.700788,27.123738,27.977326,25.069794,22.809786,19.306356,10.768967,2.907497,-0.067764,-1.446109,-5.516412,-11.567132,-17.086303,-23.061541,-23.080038,-13.428564,-3.193465,-5.857587,-1.876653,3.787089,11.530571,17.250746,18.444585,4.709089,-20.358701,-35.361704,-34.202786,-30.584758,-33.310368,-40.682295,-47.703148,-43.975456,-28.101669,-16.384152,-14.325184,-11.226951,-5.591550,-2.956790,-2.950793,-2.821627,-10.269825,-16.495765,-15.199657,-10.481543,-9.841289,-14.378579,-22.392911,-28.783590,-25.649729,-16.890238,-12.903827,-14.988999,-17.844046,-13.767053,-3.255888,3.091794,-0.921443,5.771105,3.320103,2.163841,-0.303288,-4.487275,-9.294502,-14.731745,-14.906186,-4.525413,7.902573,
2,34.798703,23.261554,12.671378,9.428628,6.033709,7.971978,-1.934367,-7.465635,-7.721545,-1.902051,3.992647,6.762096,11.405582,21.322118,33.210442,43.369004,46.595965,37.189188,22.946232,16.264348,15.640477,13.271242,7.252947,2.481577,3.252789,-10.480698,2.924333,12.905049,13.470107,11.328784,15.890993,22.967284,23.668861,13.607585,-3.204020,-17.152756,-21.924746,-21.105432,-24.379564,-32.131200,-36.843700,-36.399721,-28.581218,-15.369438,-5.544919,-6.592342,-8.653948,-7.777700,-1.767952,6.470947,4.334661,-11.481128,-23.280709,-22.068339,-21.048236,-29.824571,-40.201466,-46.382984,-45.573130,-34.775844,-21.094996,-14.234388,-11.097747,-6.088722,-2.010887,2.027389,0.288292,-10.745280,-25.380406,-30.724480,-25.985206,-23.270602,-29.688988,-37.248992,-40.659538,-36.029851,-24.469449,-16.188143,-14.996032,-14.603507,-10.821242,-5.660195,-0.131608,2.752996,-2.518187,7.474421,0.699442,2.288548,8.243324,10.765188,7.555370,6.514911,15.844648,29.345208,34.816999,34.860204,36.974768,42.060399,44.216559,41.742456,30.437043,15.099012,7.726793,7.318546,3.872164,0.015762,-11.471730,-17.956014,-14.233957,-1.302322,11.342228,15.903129,16.883914,22.288204,29.619713,32.582238,26.679663,12.015950,1.795143,6.121361,15.198799,16.431725,11.224480,4.281475,3.107193,-10.445636,5.193715,12.050190,14.531721,18.346772,21.004342,22.913973,23.985762,17.430363,3.358998,-9.516543,-17.983890,-23.530092,-29.541613,-37.404324,-43.403504,-42.023831,-28.849387,-13.463650,-6.249492,-4.236268,2.204000,12.734415,19.754527,19.863933,11.862275,1.349241,-3.475426,-3.711933,-4.960434,-7.821023,-13.593741,-19.778567,-16.575419,-4.284157,4.495426,1.563597,-3.979311,-3.432901,-1.096708,4.852039,4.980699,-1.911271,-13.128143,-18.474412,-16.654797,-14.574245,-17.737926,-23.551241,-24.719816,-15.449507,0.153603,7.383201,5.832744,7.995460,14.064347,15.032172,12.991474,8.534558,0.853503,4.422397,0.562564,-0.191566,0.357773,-1.691864,-10.443141,-13.398944,-2.962384,9.263193,12.474206,8.666835,7.237014,15.880433,28.592526,33.668479,27.503220,15.591417,6.627481,4.805561,3.819542,0.906871,-8.726980,-14.130713,-12.004301,-4.247784,3.338727,4.355048,4.600917,10.275995,14.679865,13.312026,10.371893,5.158799,0.671987,1.110615,5.273750,8.060370,8.069362,5.799521,1.049551,-8.263580,-2.189210,4.703616,8.324115,10.482032,15.587644,24.551768,31.885761,26.201528,9.411522,-2.671249,-5.833221,-6.160269,-7.137709,-12.450291,-18.082197,-17.617044,-9.237876,-1.427169,-3.866825,-1.061822,-4.212222,1.136497,7.980493,8.115773,-3.561809,-15.756548,-14.872887,-8.215418,-6.688878,-10.798148,-14.948254,-18.544363,-18.491784,-10.295964,-5.062493,-10.297097,-15.405642,-10.994129,-0.668701,1.207909,1.754891,-3.178316,-10.296965,-13.506437,-15.012243,-19.720014,-26.235506,-31.964591,-35.113257,-31.087605,-20.793848,-12.538306,-8.627408,-1.867686,6.734222,13.671576,16.337538,12.125166,0.827419,6.524754,-1.032504,-4.808930,-8.007300,-14.730615,-21.582108,-19.465247,-5.283742,9.158449,14.057117,13.707799,15.905769,22.146040,27.823356,28.432190,
2,1.544881,11.221116,22.229794,27.076829,25.368344,23.410667,25.310329,28.774059,36.008782,38.421619,27.619880,13.711065,6.402859,3.903132,1.419939,-2.738487,-7.463730,-8.447197,1.019882,-9.771585,2.163442,1.968470,3.651456,14.520792,27.085317,32.854314,27.037524,11.645146,-2.812155,-11.123244,-15.076514,-17.659879,-21.360769,-24.966133,-26.962429,-20.535624,-6.671195,-1.854122,-7.368889,-3.787646,0.674928,4.382654,3.527989,-6.596800,-22.699630,-33.488599,-33.371974,-29.258191,-27.055848,-31.873697,-42.220644,-44.005742,-32.538187,-23.127316,-23.782604,-23.313658,-15.530221,-5.442163,-1.059487,6.470252,-0.629830,-9.530365,-16.738137,-18.860371,-17.704730,-18.079327,-20.092725,-17.453947,-6.372475,6.141743,10.678289,9.626275,13.074336,24.110627,35.722824,39.098122,31.523228,16.784365,4.267269,6.348304,9.738473,8.896963,1.725245,-4.175370,-3.003741,5.241093,14.359908,18.353285,20.221604,23.565037,28.583545,37.976867,47.344519,45.685790,34.999735,23.185174,15.340688,8.864619,2.755064,-3.410090,-3.923538,0.545563,7.902307,12.652077,14.600544,16.153666,19.517688,20.799143,20.504854,19.641927,12.317760,2.240035,-1.483277,2.056079,4.066649,-0.842739,-5.862968,-5.184638,1.001941,-4.211532,0.057547,0.410266,-1.250037,1.480242,7.304976,10.228314,7.554682,0.488792,-6.264361,-9.099487,-9.611008,-10.093045,-14.539422,-22.443660,-25.598978,-17.698289,-5.634198,0.100998,-2.784688,0.958796,0.409048,6.025665,9.006745,1.250340,-10.545542,-13.682941,-10.063936,-10.490655,-13.965262,-13.589966,-9.667016,-2.298700,5.312655,7.364683,2.654980,-5.018896,-8.159425,-4.469121,0.349463,2.970019,-11.623332,-24.036305,-25.076370,-20.851348,-19.169411,-22.539081,-28.369230,-31.669079,-28.148197,-18.416502,-11.784262,-10.962089,-7.260944,2.207866,10.432686,14.901518,15.802016,9.421490,1.046903,5.480029,5.739191,6.407132,3.289288,-2.808914,-1.482060,13.475236,29.768331,32.002543,24.183145,24.115359,35.604348,46.655216,46.572998,36.262659,25.829089,20.877099,16.811422,8.536706,0.557516,-1.687316,-4.722064,-2.630180,3.791436,8.745986,10.736775,12.367207,17.040785,25.961105,35.231858,34.756827,19.839882,2.784983,-5.603824,-7.122407,-5.966553,-4.131964,-3.514261,-3.308986,1.488401,-4.992239,4.738116,8.787082,11.359968,16.362396,19.000302,20.179947,16.607911,7.491103,1.436763,2.052461,1.546103,-7.174068,-18.699468,-25.221175,-24.029920,-16.516093,-8.469735,-4.580544,-3.837866,-6.892588,1.878836,8.258746,9.744311,3.032822,-9.078301,-18.191498,-19.809066,-21.633146,-27.965720,-34.908601,-40.663433,-42.131677,-33.114614,-22.013336,-19.328742,-20.161540,-14.712234,-5.181134,-1.568344,5.481417,-10.509119,-20.623898,-17.370222,-9.655769,-8.488601,-16.677162,-27.730284,-32.257182,-24.267463,-10.171122,-0.778546,0.499490,-0.248187,6.466860,18.132674,25.436903,21.166798,9.609218,1.950623,2.771642,4.247588,-1.263357,-10.858742,-15.736071,-11.292811,1.373604,13.165774,16.586327,15.837920,17.623228,20.944953,21.805811,22.108539,18.455885,8.250613,0.795497,0.293322,2.946884,2.158985,-2.802393,
2,27.527046,26.816012,25.712145,25.723491,27.958438,31.325713,28.334386,18.593865,8.413894,5.304555,8.076265,7.939776,4.406172,-0.213130,-2.106379,1.738505,-6.463164,-9.140507,-11.518697,-5.295577,4.031256,9.164459,8.306949,1.461909,-8.567200,-17.576640,-20.662383,-20.220111,-25.845209,-36.932758,-43.777536,-37.774010,-26.016334,-16.098348,-8.713572,-5.355210,-1.260014,0.531201,4.678088,5.080528,-2.161527,-9.348050,-8.278941,-3.254022,-1.973037,-5.835651,-13.341449,-15.389932,-4.980519,4.587453,4.614735,3.102161,5.850651,6.561215,4.734945,0.773024,9.308767,-3.056095,-6.261177,-1.514775,-3.325678,-13.503182,-23.557095,-26.597742,-16.735973,3.416830,18.048750,18.947331,15.299569,15.891910,21.910248,30.239919,32.765700,26.171804,15.641882,6.659016,4.267368,6.904343,6.437876,1.870916,-3.193649,0.547001,11.495620,17.054882,16.027386,13.215644,15.622084,24.049039,29.698754,25.573374,13.574945,3.005414,0.666624,1.160313,-0.511885,-1.248444,-7.860503,-5.156009,6.347449,19.854801,26.371308,25.302562,20.654498,17.333388,19.545848,20.998842,10.799680,-7.843976,-19.324110,-17.932356,-13.459987,-15.597922,-21.836722,-25.066586,-18.377355,-1.758509,-3.642118,-1.624522,0.739740,9.552672,18.016396,21.333152,16.905307,3.935353,-7.474087,-13.120255,-12.000257,-9.011059,-12.549483,-20.812209,-27.895767,-25.596539,-17.610756,-13.734496,-11.263685,-5.594091,-3.333064,2.865054,6.787698,2.729651,-10.014358,-23.349646,-28.781572,-27.215526,-25.656930,-29.311223,-38.983865,-43.280325,-34.306080,-23.066611,-21.467397,-23.313912,-17.911627,-7.966000,-1.682480,-1.166502,8.367212,-3.929413,-10.442473,-9.279037,-10.146606,-15.253113,-21.006931,-24.116876,-20.892214,-9.242660,5.521615,13.289981,13.651349,12.694162,13.206401,15.975577,16.888730,12.332429,5.292772,3.655378,7.582888,3.919874,-1.703445,-4.585014,-4.722882,1.584793,10.439736,14.843546,19.097688,25.603487,32.662123,39.174622,42.741853,39.764522,30.243168,22.178157,19.169682,16.717760,11.322223,3.582727,-5.199769,-6.424908,3.243379,14.109538,15.678298,9.154660,8.743911,16.751618,22.183629,19.746083,9.645400,-2.211711,-8.218250,-6.566932,-3.050180,-5.460127,-14.188614,-21.227191,-15.967117,-0.299359,-5.993081,-7.449387,-15.647869,-18.391077,-9.381484,0.678512,-2.313394,-17.559413,-31.761652,-34.622107,-30.942656,-31.425053,-38.170926,-42.281766,-39.258927,-26.403618,-7.916906,1.400294,-1.452781,-3.776742,-6.460230,3.100015,5.891510,0.312924,-9.836902,-16.158952,-15.154022,-14.522713,-21.465421,-33.082333,-42.273418,-43.138420,-35.176852,-26.287994,-22.370884,-23.024314,-21.446831,-13.536727,-4.892044,-3.110563,4.190326,-6.133731,-15.130742,-17.507827,-16.972539,-17.232867,-19.097235,-22.974507,-22.773990,-16.405433,-9.679031,-5.705424,-2.895701,3.738600,13.785492,21.932534,19.266837,6.775057,-0.456601,1.057612,6.564611,-1.839980,-11.838491,-20.333807,-23.329046,-18.727566,-11.332968,-8.649099,-11.580056,-11.330188,-1.904096,10.193358,21.157054,25.781612,22.561387,19.090468,15.862682,11.071586,6.610468,1.972350,-3.325668,0.426918,13.302458,23.407162,
2,35.567392,26.354281,8.371020,-5.067930,-4.747528,-0.052151,-3.265594,-13.571062,-23.651174,-26.087958,-17.662848,-7.656688,-5.849726,-5.113162,-2.074880,5.421492,12.175664,15.787462,11.556838,1.083872,-5.731225,-8.288105,-9.486284,-13.325132,-19.903877,-24.221598,-20.877223,-10.369530,-2.297139,-3.558518,-8.551975,-8.175661,-1.127567,6.198625,12.199420,6.453900,-1.943850,-6.700042,-11.621187,-18.914096,-24.485882,-26.043963,-23.296063,-13.550213,-1.114753,8.101667,12.490086,13.641232,15.545517,19.093044,19.873598,13.276652,2.391363,5.323224,9.008481,14.861213,16.885190,14.284119,10.961637,14.321299,24.466569,34.900813,39.127289,37.949137,37.269378,41.490903,48.016465,49.648680,39.890018,24.742797,12.109187,5.791197,3.790681,4.406777,-3.318110,-8.183042,-2.585506,10.876946,19.506695,18.706047,17.277222,22.322354,33.843484,42.142548,40.621382,28.581709,17.525140,13.553167,11.667162,6.368371,1.057917,-1.063211,2.205852,-6.051492,4.766597,6.879135,4.590068,4.303652,5.824466,8.257409,9.607713,4.480944,-5.716992,-11.179845,-12.701013,-17.073545,-24.590132,-29.843104,-31.324433,-28.325722,-19.838210,-10.652767,-3.959893,-6.227383,-0.539744,2.955741,6.655859,6.857348,-2.143101,-11.748833,-15.063231,-15.789702,-20.431681,-29.692617,-36.075980,-38.885244,-36.023896,-24.195423,-12.003316,-8.251062,-6.942146,-4.580047,-3.668238,0.065922,-2.918991,-6.500397,-8.782490,-8.169652,-8.566442,-10.877603,-18.108055,-29.762895,-33.747396,-26.467002,-18.127329,-12.534165,-7.093463,0.888656,10.105903,15.751828,15.119814,8.503083,-1.805305,6.428278,5.912582,6.296859,1.680462,-6.137416,-12.857748,-10.281680,3.189464,14.554176,16.910756,17.157311,23.091745,29.511759,34.114847,37.998286,32.159143,17.094262,7.200268,6.173564,4.710328,6.032036,-2.362968,-6.354730,-1.944987,7.264337,9.871120,3.573044,-2.732415,1.352007,16.223364,29.578486,30.413985,20.026245,10.411420,8.365433,7.883970,3.862480,0.896176,1.280025,3.208755,-2.681277,5.936711,12.959612,14.691196,11.535478,6.496720,5.079436,9.588396,7.828628,-2.194578,-7.275668,-3.708820,-3.487944,-15.106677,-29.358381,-34.036146,-26.632781,-15.140818,-7.052511,-3.559832,-2.505716,1.858509,7.832573,10.812267,7.493348,-4.128459,-16.957460,-21.497984,-20.654382,-19.731028,-19.332308,-21.362625,-25.426392,-17.928032,-1.471977,6.037336,1.495466,-1.802033,-0.359609,1.418288,10.329469,7.788372,-7.296903,-21.933997,-24.930995,-23.996435,-26.339314,-27.169090,-22.995690,-15.829510,-1.881425,14.937214,21.314572,20.138328,22.395675,26.873312,28.357449,25.533800,17.687582,5.103516,7.875253,8.491049,12.610329,11.331542,2.452924,-8.727513,-10.911988,-1.502953,9.896898,13.784620,13.957018,20.510638,31.541766,37.746417,34.120339,21.759007,8.457618,1.611093,2.014068,3.960902,3.870847,-1.778234,-6.034355,0.606979,14.850258,24.199957,25.660532,25.636410,28.131986,35.151613,43.399599,44.580202,33.097622,17.356001,10.359416,13.111877,12.817325,4.279625,-2.097431,0.789872,-10.204144,1.023137,5.698513,3.124292,-0.596823,-2.061729,-2.166908,
2,-9.511909,3.020745,15.682006,19.266420,16.968253,19.981483,25.599796,28.016585,26.724949,19.217682,9.087282,5.625939,6.125539,4.032635,-13.191638,-24.532255,-23.790316,-12.467029,-1.163715,1.818192,-0.322864,2.811438,13.819296,22.498775,22.247810,15.164200,7.645608,8.289557,16.693426,21.454455,15.669736,8.036216,3.950695,-4.936123,0.019379,6.478874,8.649927,8.240534,11.959126,19.414575,25.316197,22.973751,13.297446,2.097940,-1.113655,1.274229,-2.026385,-13.203014,-22.742717,-26.732090,-23.857268,-14.303922,-2.757261,-2.623910,1.378525,4.193426,8.620276,16.658557,20.407751,10.267342,-3.063180,-5.084322,-0.796586,-0.400466,-5.796446,-14.685003,-20.866603,-15.541700,-5.510737,-3.074146,-7.732342,-8.285731,-1.834702,1.520269,7.417853,5.730867,-2.745396,-9.215882,-10.585776,-12.860501,-19.845716,-27.847317,-32.371434,-30.224428,-19.912895,-8.243659,-1.723774,2.139475,6.038580,8.665801,10.313175,8.872514,-2.164596,7.232027,-0.807737,-2.700027,-3.151304,-3.668533,-7.259186,-14.531252,-16.393241,-5.954192,6.276323,9.488189,9.370751,13.812802,23.602583,31.827778,30.675513,17.732350,2.784287,-2.383245,3.114616,3.200639,2.944283,3.000792,6.473535,13.465935,19.681469,20.023658,16.796064,18.202286,26.845953,33.930719,33.760263,26.538281,16.068484,12.254597,17.500352,22.509489,18.685752,10.032891,2.754653,-6.442507,-1.278762,7.626669,9.478802,5.283088,4.245421,8.572148,10.770068,7.046446,-3.290988,-14.334028,-17.273993,-15.201719,-14.907557,-19.981367,-29.012519,-34.989888,-29.101851,-13.036287,-2.480574,-5.760144,-1.215912,5.728316,14.672093,21.015034,18.056817,6.397191,-4.064028,-7.026948,-6.091598,-9.657929,-19.525809,-27.295020,-25.465258,-13.736130,-3.507149,-3.477741,-9.047233,-9.814861,-2.379764,-2.120134,4.168498,3.707882,-5.306130,-14.777741,-19.211205,-19.010823,-22.580933,-31.325910,-37.950157,-37.658102,-31.554195,-24.542902,-17.728702,-12.016083,-10.409544,-9.613583,-1.532705,6.428588,-2.034209,7.222562,-2.565774,-5.369609,-7.293060,-10.340550,-11.216811,-10.526891,-11.876161,-8.770317,-1.715388,4.782261,12.215928,21.878562,33.262768,42.760799,41.464555,24.665581,7.055064,2.123832,4.462350,3.501253,-7.224555,-10.293426,-3.101860,8.653658,16.776650,18.670641,19.039155,21.185705,25.813796,32.026916,34.328533,27.622090,13.911007,6.598670,8.888436,10.983626,7.487526,2.703383,1.034404,-2.091006,3.101393,9.713398,11.244576,5.694498,-3.037257,-7.251104,-2.447444,4.673334,2.210856,-7.735234,-14.265275,-13.079582,-11.578451,-16.662154,-26.030938,-32.485026,-26.624611,-12.649865,-2.260927,-2.815615,-0.431811,6.076452,13.710570,17.671997,16.662249,11.282897,6.435574,7.521972,9.743842,7.402996,0.301303,-7.659306,-11.076841,-7.949252,-1.474430,3.649795,0.625653,-4.644568,-1.058518,0.213012,9.429253,4.544348,-11.041961,-16.329937,-7.219845,-0.711957,-2.506545,-7.303882,-14.104243,-17.107903,-9.915135,1.273789,6.858599,6.439029,5.714815,7.185697,10.651419,9.811731,-0.833612,4.759339,-0.651944,3.750671,9.465199,6.989434,-0.979060,-6.042956,
2,8.637735,3.391102,2.361373,-1.238185,-12.493787,-25.891121,-33.215352,-30.651117,-21.382524,-11.593152,-4.766047,-4.891431,1.180787,8.081998,13.007518,10.752638,-2.687368,-18.117240,-25.641722,-26.765559,-30.693487,-36.230234,-40.080511,-39.049006,-29.540384,-18.359282,-13.410305,-13.498022,-10.026967,-4.101634,-1.726478,6.523581,2.116288,-10.194420,-22.515040,-26.552438,-24.213846,-22.506873,-23.539496,-24.320071,-19.657328,-6.260374,6.661303,5.997840,-3.261010,-5.025874,-0.107758,8.581945,17.631465,15.628644,1.360944,3.506612,6.322617,12.451745,11.195136,1.753903,-7.170870,-4.578128,6.733150,13.163947,10.915206,10.487829,15.682671,19.700542,18.842202,14.608361,6.799676,-2.183250,-5.339868,-1.869686,1.427732,-0.797988,-7.356320,-13.579871,-8.966481,5.886058,15.880001,15.617650,11.401350,10.333490,14.616502,17.652855,12.445062,4.295670,2.507265,3.882471,3.423946,-1.065617,-6.583490,-7.826912,-0.093088,-5.804245,2.517055,1.544925,-3.614113,-0.353122,11.035254,18.658796,19.925716,15.544662,5.124720,-4.524577,-6.893252,-7.870875,-15.746560,-27.308968,-37.046298,-39.246286,-31.496207,-17.882870,-4.192618,-5.919042,0.482957,3.951135,9.282698,9.774886,0.724977,-9.269706,-16.911786,-21.703830,-23.348340,-26.947751,-34.104420,-38.020630,-32.398578,-24.540376,-24.248045,-24.923513,-17.368616,-8.185089,-3.174570,3.292373,1.190655,-9.029891,-16.773262,-16.043646,-12.645421,-12.583158,-15.961616,-17.285749,-14.460701,-8.591807,-0.784595,0.355217,-5.578281,-8.191190,-2.089805,9.919392,18.529723,13.734323,0.826132,6.122073,2.491467,-2.301519,-7.356765,-9.274326,-9.154433,-3.197508,7.895836,15.024784,16.088317,17.585204,23.113997,31.873027,40.660399,41.573989,31.811441,19.770163,13.847324,10.839854,3.544441,-1.003543,-7.127848,-6.384883,1.429506,13.719557,20.889589,22.344000,21.387261,21.023916,22.558576,24.295922,19.740695,11.597701,8.271804,11.367926,13.891047,9.146201,0.738476,-3.526987,-0.344995,-7.754711,2.015661,3.829167,0.693376,1.316279,9.206290,20.072256,27.123460,21.269622,6.720908,-1.912072,-4.218255,-10.286126,-17.303713,-19.858588,-23.437860,-23.928175,-14.915717,-5.186203,-4.624884,-7.077476,-4.258037,2.936140,10.003609,11.443009,3.753078,-5.967343,-11.119305,-14.503744,-20.621474,-29.773185,-36.459434,-37.180643,-30.137097,-20.128933,-14.856147,-13.718583,-11.815932,-8.347736,-3.313378,3.233099,1.876767,-6.128674,-10.483125,-8.886459,-4.538526,-1.539150,-2.788133,-9.685255,-15.630273,-10.622923,4.537079,15.950039,17.016279,14.936145,18.009997,25.438217,28.321202,18.659371,1.753157,2.030270,1.948454,3.254195,-1.551974,-12.469528,-20.397949,-12.536727,5.214633,14.056614,12.289681,11.414283,11.930847,12.339777,15.441458,16.536246,9.124472,1.506441,3.582429,6.852681,3.017415,6.544186,-2.229338,-7.148583,-2.612634,5.779245,8.627601,8.332784,14.094937,27.513989,39.489646,45.621383,43.408439,34.749808,29.944238,29.290218,23.985983,15.929503,10.818481,7.250352,4.622280,-9.892363,2.596373,13.373228,12.645590,7.421381,9.009062,17.217645,20.556697,8.836348,
2,-10.735375,-6.339561,-5.221837,-2.188409,3.654327,10.599789,15.341206,14.471620,7.783884,0.870665,2.985852,1.532973,-3.289059,-10.677013,-12.527613,-5.937536,5.996580,16.578134,20.010561,17.697323,15.041911,18.147842,26.018653,28.157900,20.069158,10.356017,5.122082,5.670969,7.306306,1.531731,-5.847133,-15.406804,-10.297151,0.083525,1.137130,-2.234219,-0.828183,4.557793,8.426494,6.780931,-0.975655,-12.539785,-21.307745,-21.475581,-18.339099,-15.693861,-13.735183,-13.358138,-11.757549,-0.427994,-9.808113,-0.510801,2.685490,6.787704,12.903288,20.840197,26.306909,18.212428,0.266292,-11.821417,-16.140070,-18.978486,-23.424920,-29.567067,-36.392049,-35.386418,-22.236148,-9.526634,-6.042689,-6.268543,-4.844348,2.907064,6.358905,6.010597,2.561624,-2.388466,-6.140052,-5.393444,-6.348869,-13.806473,-23.566317,-27.828372,-23.892516,-16.858531,-11.926102,-12.694815,-15.464150,-13.633486,-8.302096,-2.969146,5.579275,-9.230908,-26.160532,-30.118692,-24.614952,-24.459345,-30.362378,-32.435029,-29.488750,-21.135470,-11.087594,-6.058005,-4.960064,-1.107612,5.985032,12.703068,14.431212,9.053703,3.154296,2.616263,4.702966,-1.473497,-12.700075,-24.577967,-32.708573,-28.993491,-12.434527,2.366307,7.606787,8.184471,10.296701,14.840599,18.813060,18.310756,13.630130,9.267395,7.818535,8.379299,7.245202,1.711526,-2.864823,-7.663329,-1.562379,9.842750,16.857012,17.285587,16.733886,20.307542,25.612415,29.054590,25.740372,14.776289,3.869088,0.025738,0.853423,3.359547,4.351730,0.537807,-4.174170,1.424064,-5.858988,0.003609,3.697329,10.027127,16.998242,21.816198,23.286812,16.616193,7.410744,4.477170,3.822476,-2.246027,-11.220725,-16.293692,-20.856696,-23.101190,-17.118316,-9.298901,-6.133457,-3.912181,-3.772741,3.849618,12.644735,11.209146,-4.360652,-18.868198,-21.017057,-18.310821,-21.153098,-29.047511,-34.997691,-35.607276,-29.079903,-18.019208,-11.628821,-12.712365,-14.073450,-12.115674,-7.742620,-2.557858,2.871731,-5.370007,-12.967920,-13.827662,-12.655238,-11.657011,-12.039698,-18.810373,-25.976467,-20.845772,-9.926434,-3.626963,-5.256224,-7.123447,0.261783,12.589518,16.049449,7.930909,-0.477131,-0.986062,2.194125,1.450613,-0.456007,-2.723265,-4.648670,-2.029711,5.436141,13.351429,17.718706,18.240534,17.019482,16.958123,18.459032,18.324783,10.057949,-2.838899,-8.263197,-2.012384,4.616093,0.724781,-1.616804,-2.844615,9.260571,21.702832,19.186390,10.315613,10.595013,18.029245,22.123106,20.081533,15.209600,10.312520,7.295642,7.364451,5.524565,0.881736,-2.758150,-4.989075,-5.304891,-0.299316,-8.508275,-1.545056,2.321225,2.797907,8.092813,19.814257,27.571051,21.872512,7.528466,-2.950745,-6.754260,-10.270691,-15.588122,-22.794105,-30.775655,-28.719248,-15.710817,-5.035753,-4.178898,-4.924549,-1.572128,4.985106,9.403884,9.981454,-3.484982,-20.698278,-21.961332,-12.077091,-7.048545,-10.178728,-16.270713,-19.727614,-15.252581,-6.048804,0.680494,4.232054,2.902584,-1.011242,-1.612782,0.794573,8.867572,-0.303050,-12.285067,-15.586916,-14.917551,-19.086445,-25.003598,-27.679542,-24.525345,-11.052616,
2,15.571253,18.486649,22.952363,28.771333,28.346504,18.680833,10.877279,9.938806,10.468379,7.068962,1.843516,-1.204998,1.826371,-8.746212,0.962091,5.651912,6.529556,8.101668,12.675243,19.657632,21.456546,10.880064,-4.863364,-15.964910,-18.615363,-19.605130,-24.724224,-30.662266,-32.908482,-29.851696,-21.080332,-10.782410,-7.745545,-4.580386,-10.392215,-6.804227,0.981629,4.563531,-2.760208,-12.091139,-14.730666,-15.480043,-17.940373,-19.012596,-22.797491,-28.595669,-26.107573,-17.433470,-10.273454,-6.927440,-2.595162,0.723825,0.530151,1.171081,2.063831,-5.440341,-12.147101,-14.562373,-14.492340,-16.743440,-22.622365,-26.136062,-25.291726,-20.696805,-15.458994,-14.486233,-16.486712,-15.368861,-7.341355,5.686888,16.206708,13.208706,-1.216760,5.378724,4.480459,5.676925,1.466837,-7.551235,-13.078865,-10.117777,-2.769849,1.462884,0.778227,2.873820,11.447141,21.195496,26.916020,25.705676,18.761253,9.179361,3.656435,5.288728,2.572317,4.543609,-9.676316,-16.864019,-17.323020,-13.457134,-11.470466,-11.267425,-6.152724,2.768616,12.591261,19.909563,19.117552,9.508937,2.277101,7.215103,14.915668,12.971192,4.173737,-0.184967,2.886469,-10.613753,-2.409465,0.598201,-1.384484,-2.450763,3.806617,13.495417,16.823912,7.200902,-8.664284,-20.161773,-25.281151,-29.811448,-35.541139,-41.058135,-44.049778,-39.902841,-26.803522,-13.037442,-6.289640,-4.983031,0.984996,9.375782,16.189354,15.525926,6.285905,-4.230103,-6.421293,-2.486649,-4.924947,-14.034748,-21.714394,-24.062008,-22.275486,-18.652501,-15.190496,-11.686682,-9.438041,-5.841319,-0.193031,5.862608,9.451452,1.444027,-6.163907,-5.676879,-4.299716,-8.037545,-14.595796,-17.880209,-12.796831,-3.252023,6.047538,13.394861,18.482631,19.803215,18.648657,17.810675,19.080665,13.949694,1.608506,3.025892,5.921403,7.525496,1.235822,-9.550135,-16.235061,-14.621810,-6.913414,-2.613076,-4.624176,-4.150272,1.304898,6.737419,13.043191,15.417934,9.057186,0.356300,-1.689556,1.314603,1.063576,2.445172,-2.819606,-0.169000,7.900294,15.091640,17.608458,16.854215,17.432426,22.046642,30.400453,38.197476,35.741359,22.635770,11.784400,11.190954,14.159155,14.192734,8.595435,1.671008,2.923212,-6.370115,8.105115,14.998320,16.720745,20.384221,28.901163,37.284574,40.048045,33.205761,21.172499,12.163631,9.695122,8.883538,1.546041,-6.499610,-11.035053,-8.541327,-3.498872,-0.887524,-2.886517,-8.121321,-8.217537,3.768807,16.335256,15.579401,2.298880,-10.308608,-14.345301,-16.813367,-23.614896,-32.851895,-41.026285,-44.639894,-35.994452,-19.791589,-11.832832,-13.219600,-13.453202,-9.534835,-3.665582,0.863786,-0.409963,-9.412617,-18.748762,-19.023158,-14.340734,-14.006586,-20.425977,-30.404334,-34.947245,-28.060460,-17.449887,-10.021592,-3.981797,4.563123,14.206637,20.542061,22.362562,15.561153,-0.269300,8.143011,7.222574,6.114355,-0.582640,-6.869615,-10.347994,-8.519423,1.714218,10.850812,13.587994,15.123153,22.253418,35.775661,48.486486,45.482230,24.958957,6.212456,2.838236,6.531528,4.187281,2.623489,-5.971397,-12.886234,-9.916320,2.543065,13.796650,21.249171,
6,-5.887196,3.888585,12.043330,17.581607,23.408015,27.627178,28.043739,28.562360,32.487713,30.524479,21.077346,14.651001,12.950133,9.079428,4.443567,1.947224,0.995064,-2.771108,2.820277,8.216146,10.323159,10.648323,11.498992,16.582869,23.908004,24.082798,17.116002,11.616720,10.894407,8.458868,1.820264,-6.110892,-12.823735,-17.107045,-15.949249,-8.838417,-1.162270,-8.988986,-9.052636,-9.430619,-7.825738,-2.740736,1.721715,-3.240976,-17.631314,-29.651704,-34.304446,-38.791727,-46.615614,-51.278045,-47.480830,-36.125638,-23.513996,-16.547284,-17.126734,-15.653422,-5.428271,0.971400,6.662398,4.938989,-2.098319,-5.848984,-1.512432,2.411943,0.324780,-3.673250,-6.981443,-4.999064,1.974656,6.240517,4.599351,1.652025,4.499434,10.142509,14.282211,12.319535,0.155506,8.200545,3.360054,7.728501,10.204634,6.386949,0.273683,-3.237200,4.051984,19.838629,32.219833,35.792386,34.852765,36.197129,41.821309,46.120806,40.790783,26.426065,11.321130,5.070111,6.566790,2.038443,-2.255564,-8.333939,-9.193299,-0.130173,9.858990,15.477822,16.430027,16.919385,21.449740,27.325005,27.949155,20.926226,12.360313,9.855564,10.916185,7.846433,3.150616,1.533093,1.898271,-5.309623,2.293235,9.313952,12.058847,13.434611,15.748304,18.807365,20.719610,18.893240,11.336841,2.159390,-2.229747,-5.720809,-12.403636,-22.967674,-33.501966,-35.995156,-25.835482,-11.810783,-3.708488,-8.611749,-7.895045,-4.281586,1.927003,5.929178,4.123479,-2.491459,-10.616902,-16.054007,-19.503820,-26.867266,-36.845143,-45.038121,-47.346736,-37.171381,-17.712310,-6.369629,-7.343297,-9.033120,-4.338751,1.297310,4.370397,3.006736,-3.196874,-8.243724,-7.837190,-9.380735,-17.277903,-27.132320,-30.047690,-22.427795,-11.476489,-6.197701,-5.595432,-5.873752,-3.736800,3.311217,10.366024,9.123284,-0.921410,8.951712,1.547158,-0.010469,-4.725435,-11.002424,-11.746547,-11.663347,-7.658813,4.360621,14.688062,19.616155,24.137079,27.642538,27.923758,28.371483,24.175973,13.826997,7.613831,5.625260,3.749569,5.626020,-5.715175,-16.449538,-20.074861,-12.088939,0.310424,8.925408,12.358173,14.510856,18.685564,24.284371,30.809316,33.262395,27.745562,19.360725,12.909742,10.994419,11.316510,8.777715,3.179676,-7.923880,0.409452,8.359879,10.037485,11.952915,20.417385,30.542687,35.741187,34.425834,24.110161,9.308288,0.134924,-3.294629,-6.664475,-15.158122,-26.758480,-34.547859,-29.507971,-13.819924,-3.364225,-4.376646,-4.643800,-3.451885,-1.303247,2.899799,3.954981,-3.939927,-14.587103,-19.588666,-20.546676,-21.963128,-23.639949,-29.378994,-33.282040,-24.750787,-11.686854,-5.291775,-6.267000,-7.113890,-2.033719,2.466922,4.364725,-6.954530,-20.395452,-23.462863,-20.661788,-19.097465,-19.175335,-22.201046,-27.480451,-27.919606,-17.624770,-3.202405,4.040826,5.998059,9.662231,13.426077,15.982135,14.422744,0.040045,1.501086,-5.514072,-5.446268,-12.002095,-19.588449,-22.912534,-25.481857,-23.504231,-17.287771,-13.640899,-14.772342,-15.191127,-14.006589,-9.428364,2.833607,13.269082,11.767512,4.918049,2.609539,1.630526,3.668924,-2.606056,-3.952333,
3,12.419698,11.187748,10.215222,8.690854,1.203028,4.477366,-3.043577,-0.300422,2.301241,-4.344474,-15.443745,-20.303051,-19.629170,-15.229185,-7.210486,-0.380771,1.151952,2.979364,10.392829,19.583398,23.341804,18.158462,9.923468,4.526600,3.657312,8.492153,4.831926,-6.441272,-18.327908,-18.228592,-8.844081,-1.075293,2.276697,5.910641,14.525122,25.918540,34.489115,36.734877,30.253665,21.243121,17.600691,17.423617,16.308939,12.453490,4.753897,-6.857162,-4.229636,2.535808,3.648874,1.919750,8.959109,23.778112,39.188412,45.802152,36.831967,20.190987,8.592834,2.051627,-2.518020,-8.200997,-15.481698,-22.344018,-21.671355,-11.746611,-1.552189,-4.243322,-4.648513,-4.031297,2.307488,9.367004,11.046416,5.044897,-4.138369,-7.304185,-5.853340,-8.286605,-15.304730,-22.508443,-27.998448,-24.675422,-11.440016,0.507147,3.465477,-1.165588,-2.786578,1.767720,7.448632,5.371527,-6.470254,-19.283592,-25.475590,-29.153562,-30.325042,-27.597769,-30.579693,-36.178970,-29.703956,-15.663209,-6.365486,-5.819740,-8.335120,-6.720967,-1.886817,1.957605,0.102383,8.656692,1.451911,-5.360405,-6.587248,-5.036080,-8.614830,-17.631911,-20.996218,-9.317140,7.295439,14.731132,14.379043,16.527767,22.065383,25.979449,23.657003,14.284556,4.248094,1.633072,5.024414,5.971440,1.794858,-5.897162,-8.699145,1.994420,19.989073,30.190374,26.303898,17.935231,17.889959,27.973666,41.791930,46.350316,33.354372,18.309626,19.121586,27.095731,22.537512,8.352353,-0.054357,-6.645076,-0.637630,12.534438,23.680885,26.611904,27.338132,31.970647,39.120966,42.001053,33.523312,17.600591,6.446180,3.773814,3.897670,-0.867629,-10.007018,-18.804989,-21.445587,-13.812417,-2.988637,-6.193681,-11.845235,-9.579731,0.103858,8.806824,11.430736,5.177441,-3.150928,-5.551944,-3.322888,-5.160736,-15.062161,-27.423526,-35.340883,-34.409966,-22.626193,-10.384659,-6.680138,-3.607081,-0.459612,-3.369557,-0.155427,-1.726898,-13.989098,-26.347163,-30.106223,-29.171398,-29.947783,-35.740446,-45.654417,-50.794679,-44.466165,-35.973750,-32.022244,-32.016390,-31.160857,-24.460237,-13.419041,-3.141697,-2.632548,2.848527,-2.981825,0.680971,3.534777,1.177287,-3.493973,-6.681653,-3.688584,6.682224,13.027573,11.944076,9.528153,8.176031,12.183738,20.347102,23.761750,18.823105,12.526384,8.266599,3.638553,2.199512,-7.493926,-19.747093,-29.658481,-24.326598,-4.749972,9.672849,9.443294,5.462768,6.332649,10.454286,14.828999,15.758078,10.442781,4.784330,5.383917,9.142695,8.861783,4.142265,0.185187,-4.326811,7.768035,22.306256,26.995355,22.443173,19.257881,23.547987,30.322334,34.490098,31.860787,22.444244,11.550645,5.390497,3.074639,-3.685756,-12.979186,-20.993817,-20.817484,-10.637691,-1.641614,-4.335024,-2.438976,2.902575,9.189048,9.819985,4.895059,-2.385917,-7.722995,-10.516077,-10.964921,-9.469129,-13.228150,-23.741274,-31.007628,-26.526178,-14.095720,-4.914887,-3.782138,-3.395765,-0.953886,-2.627886,-0.382805,0.953405,-2.617740,-8.894590,-9.175353,-2.158093,2.759270,-3.321033,-12.496619,-16.264950,-12.023335,-6.568918,-4.498688,-3.809468,
4,4.235457,7.689596,9.753772,14.227351,16.109667,7.200027,-3.602291,-5.198035,-1.787984,-0.872940,-2.353736,-5.431229,-11.206301,-12.879863,-6.952847,-2.926213,-4.100946,-3.178054,-1.458571,-4.562433,-0.848853,4.052122,1.937799,-5.794368,-11.146773,-14.621646,-23.521045,-36.546851,-46.700754,-50.884252,-45.798641,-31.745009,-19.624232,-17.136968,-17.683652,-14.364496,-7.179479,-0.428350,-2.410623,6.816340,-1.654523,-2.156844,-0.592747,-1.764541,-3.874729,-6.626016,-4.321311,4.036266,13.943377,20.696465,23.691745,25.025202,25.092587,26.589416,29.810962,26.052256,12.508083,3.872981,5.441240,6.205462,-5.262506,-16.098524,-17.400827,-9.967707,1.402483,8.411323,11.060320,13.250908,16.284435,23.662170,31.485288,33.254875,24.371921,10.737318,3.151857,4.816226,8.331009,6.696683,1.913620,-3.965616,4.498346,18.500612,26.147943,26.447380,24.306250,23.832156,28.632982,35.616889,33.292313,20.967967,9.452833,6.556169,8.787501,7.056626,1.573610,-2.851214,-6.707246,-6.783617,-0.469194,-5.152835,-4.645150,-3.343273,1.852627,9.142494,14.826393,9.304517,-7.522808,-21.155117,-24.691801,-23.932101,-23.575106,-26.619744,-32.464782,-33.008821,-22.950295,-13.087462,-9.218409,-9.041046,-4.853105,-3.663233,4.162477,6.417757,0.700084,-8.292990,-12.863830,-15.114713,-18.847817,-24.865218,-33.968884,-40.560668,-38.042300,-27.015390,-19.281415,-20.241720,-20.497514,-14.349865,-7.799701,-2.847803,-2.394807,8.906854,-0.543400,-4.614961,-4.414137,-4.947665,-9.822717,-16.346907,-18.728304,-9.775428,4.702733,13.096724,17.296617,21.392005,26.571996,32.725212,37.239787,33.403357,22.503066,11.725557,5.856975,6.532329,0.283693,-12.421385,-21.985606,-21.611946,-12.603662,-4.664292,-5.497665,-6.107901,0.300587,9.423085,17.554578,20.289746,14.622964,8.248299,7.759504,9.650022,8.712983,5.741201,1.127175,-3.845397,-2.160129,8.492073,15.816626,14.119295,11.306195,13.783796,17.658922,19.538753,18.030829,10.343047,1.483665,-0.438695,1.384948,-2.236059,-12.492006,-23.672819,-26.568059,-14.166921,-0.058235,-9.049307,-11.019044,-12.114139,-10.632301,-3.870926,5.572910,8.202460,2.121314,-5.766591,-11.956965,-17.645160,-24.626161,-36.194581,-46.944659,-46.870249,-35.964822,-22.321459,-11.532850,-5.791290,-4.288676,-1.539995,1.526664,5.891812,4.052479,-5.594396,-13.851964,-15.023456,-14.512184,-18.121541,-25.554989,-31.716067,-28.808379,-16.535597,-5.801458,-5.009759,-7.064361,-3.669180,1.071807,2.154569,-2.424980,5.454868,-1.552971,-0.347040,3.370351,2.196643,-2.470973,-5.735565,-2.200467,8.430716,18.254106,20.765538,19.160567,19.434453,23.382163,28.898368,30.277436,21.113431,6.900112,1.430929,4.199023,3.695648,-1.088675,-7.039355,-13.753130,-12.926695,0.643292,14.160212,16.527476,13.948523,18.026817,27.065843,32.069106,27.340124,13.982432,3.299572,5.295098,12.372571,12.135556,6.987625,1.332352,-5.280197,-1.141735,12.723305,20.319472,17.651557,15.024602,15.943898,17.214986,20.743662,20.335978,6.898239,-7.962991,-8.940888,-4.528372,-9.118099,-19.902466,-25.373608,-21.223396,-10.743439,-2.225083,-3.993134,
7,25.849594,15.151340,-0.461755,-9.479556,-8.991527,-8.786734,-14.753843,-18.481121,-16.856429,-11.567232,-1.300587,-3.033221,-3.051884,-7.782399,-3.725249,8.519148,15.650443,8.268361,-6.127294,-13.636642,-11.259717,-5.596464,-7.446743,-18.610319,-29.786861,-33.175945,-25.177044,-10.389534,-1.712687,-2.045672,-2.587557,-3.005940,2.795351,9.220098,9.562354,-4.683914,-23.224823,-30.966561,-30.915386,-33.877615,-39.359623,-42.667832,-42.108713,-35.288772,-24.914555,-18.692637,-18.329623,-15.532144,-6.406852,0.339579,-1.599545,7.465156,-4.314515,-10.849883,-10.344859,-9.303754,-9.731288,-8.232604,-4.313267,4.020720,17.962913,28.006417,27.343884,24.767503,28.868999,34.639624,38.770154,38.650889,27.271646,10.621756,4.990066,7.044139,9.059713,6.811805,1.802124,-2.967709,0.203838,7.218192,10.576679,10.780511,11.930786,18.728479,29.774440,38.169388,34.813911,21.808457,14.553336,16.548714,16.994615,9.990913,1.837337,-4.294727,-5.101491,7.201583,22.521801,28.966820,27.944641,26.563616,29.632439,33.560148,33.556127,27.130098,15.492126,6.652613,6.222300,9.112267,6.633927,-1.500968,-9.280333,-8.091749,0.577538,-1.798489,-2.272380,-7.590144,-11.053695,-7.664914,-1.925648,-3.437705,-13.202849,-21.922793,-22.699203,-18.633684,-16.127786,-16.982996,-19.800736,-21.582361,-17.129156,-7.542335,-0.823041,-1.372338,-1.591219,-9.454511,3.226777,13.747158,15.307778,9.510084,2.555832,-2.452904,-5.113720,-11.423877,-23.680295,-36.079541,-42.317824,-39.690993,-30.994526,-23.823529,-21.072729,-18.736473,-14.508722,-7.983051,-3.752644,5.444883,-6.791334,-11.659647,-3.963955,5.091592,4.602585,-4.335649,-12.028050,-8.279834,2.803507,9.116200,10.152184,14.305113,22.568345,30.434947,35.397685,32.749029,21.681146,9.285900,4.654852,1.849123,-0.346521,-8.196349,-15.799195,-19.153914,-13.159380,0.285510,6.681838,2.530662,-0.866983,2.389914,7.802339,11.971253,9.097592,-0.617735,-7.673844,-4.269877,2.094996,1.921581,-1.189346,-5.300865,-7.886063,-1.139049,11.746874,20.778742,22.763921,23.410118,26.425374,29.718070,27.996927,18.171003,5.849699,-2.057243,-5.539741,-7.987370,-14.389363,-23.034609,-27.311657,-19.908711,-1.813633,-4.199512,6.545120,11.223686,17.244041,25.914421,32.043442,33.040103,27.513786,18.174260,10.331677,7.896579,9.579893,6.592936,-1.852587,-9.244579,-10.070554,-5.717636,-2.672557,-2.421655,-3.450879,-4.116136,0.891904,5.393858,0.886626,-10.732926,-17.467961,-17.421660,-16.697219,-21.797843,-31.026741,-34.387119,-32.682178,-30.615107,-27.289080,-22.607252,-21.072757,-21.488705,-16.458176,-7.084224,-3.869870,3.871615,-5.846214,-10.732139,-11.492756,-10.335073,-11.966514,-17.094924,-19.928572,-15.576148,-5.546775,1.249998,0.304189,-3.494617,-3.057269,2.904946,10.980304,16.856643,14.121361,4.961418,1.363329,6.487084,7.779636,3.313723,-4.307495,-9.080896,-3.203400,9.928019,18.616329,21.064433,22.475164,27.851276,36.095441,42.310242,41.398173,32.761627,25.502902,22.324189,17.727576,11.715041,3.088455,3.211632,-5.026526,-2.828426,8.409884,17.492403,18.723163,18.006229,21.945689,31.345648,
4,-10.748184,-4.036479,-1.830756,5.453535,-4.802238,-14.021971,-16.014483,-14.189131,-15.455808,-21.824950,-29.107539,-28.915101,-18.359716,-8.754011,-5.211168,-3.844925,-0.169573,5.100035,10.248493,17.459831,21.817521,14.404475,0.803042,0.195951,-1.411708,-1.778753,-1.300252,-1.871130,-0.986169,9.759990,23.172845,26.058028,19.521303,15.468565,16.605837,20.039268,22.375131,18.819821,11.979855,8.861869,6.272619,3.218975,0.707928,1.579692,-11.483942,-16.730886,-8.758840,1.734519,6.151543,8.494600,14.766077,25.068373,33.403894,32.775052,23.884263,15.833938,13.726488,11.864316,5.449816,0.585372,-1.126644,-1.483872,3.116029,-5.595666,-0.533933,-2.055774,-5.060340,-4.846647,-1.013576,2.040143,-0.984073,-10.984649,-19.759848,-23.207766,-23.626331,-23.713293,-23.666224,-23.782515,-23.259372,-18.293811,-11.682662,-7.422560,-4.709948,-1.349303,7.075596,14.020845,14.683080,7.458913,-6.155074,-17.062321,-17.266288,-11.570457,-10.578327,-15.093411,-19.619236,-17.659342,-7.717279,0.203392,-1.400897,-4.933723,-3.198668,0.200677,1.660718,8.201669,-1.458443,-10.035933,-12.038107,-9.472715,-9.647953,-16.372474,-25.055385,-25.106260,-10.935136,5.147478,12.330600,12.902770,13.952051,16.466021,20.731777,24.735928,21.164594,12.703410,3.737517,4.337886,0.857917,-0.546832,-8.173555,-18.419493,-17.181940,0.341757,17.954185,20.957868,17.555260,20.348740,26.440611,30.533095,30.228330,20.928366,6.535167,-0.349395,2.276460,3.114416,0.766066,-1.244455,-5.117971,-3.366323,6.013381,12.624127,9.968994,8.451154,14.573866,19.940477,21.054422,19.919219,13.838469,5.015856,1.855145,4.160178,6.134878,1.883246,-6.990641,-10.082631,0.711506,-3.993581,0.631433,-2.061159,-4.070047,-4.393732,-3.130518,-0.978506,-1.635591,-11.199454,-21.867556,-21.637138,-16.105209,-16.868548,-22.123698,-27.566962,-29.794401,-23.201833,-14.284826,-9.138699,-3.858524,-3.836308,6.864320,15.515401,16.214673,4.359923,-9.451014,-14.720242,-15.149805,-16.741677,-20.897762,-27.219886,-30.909793,-26.669146,-20.199515,-16.602384,-17.779140,-19.231074,-15.959381,-9.265154,-1.949386,5.178700,3.777567,-5.110121,-10.189619,-9.066529,-7.846802,-10.336743,-16.943016,-20.372643,-13.033010,0.168133,7.222664,7.222095,11.257565,17.919838,20.199304,19.885975,16.369488,7.039101,1.683690,2.957764,3.643739,-2.519340,-8.430053,-12.887019,-12.088893,-1.534372,7.777806,6.048859,-0.920038,-2.527760,6.526774,18.644594,21.226683,10.873969,-1.412668,-3.132400,1.815548,2.831897,-1.082683,-2.241847,-2.486216,3.723429,12.989533,18.814589,17.101135,12.251760,14.069095,19.755814,25.014633,24.648308,12.859633,-1.648561,-8.073404,-8.811993,-5.461390,-1.718623,-3.480688,-5.944547,-0.507131,-5.103527,0.181591,-1.000941,-1.546242,2.750973,8.696400,13.096147,11.656743,3.385143,-4.011275,-4.824700,-5.046885,-7.969150,-9.882373,-11.076988,-11.442988,-7.969919,-5.446879,-4.862518,-0.705036,-2.638306,6.805497,14.331193,16.336814,9.420376,-2.420123,-10.186697,-10.881367,-10.006162,-14.563118,-21.254267,-24.081646,-18.547285,-8.653212,-3.901447,-5.694003,-10.232883,
4,7.419237,0.062196,-13.708847,-22.197032,-21.305379,-20.736783,-25.394004,-33.179663,-41.196237,-42.546054,-31.931285,-17.653946,-10.615889,-9.718801,-8.064202,-3.153441,-0.287698,9.038712,-6.572074,-23.518473,-27.409699,-25.355470,-26.166005,-29.452033,-33.424793,-33.596038,-22.078040,-3.983588,7.474006,9.380906,8.322750,9.984647,15.651181,21.906401,20.933826,11.816444,3.936708,5.726961,1.835702,-2.437004,-8.790566,-16.124514,-18.038501,-6.832318,9.594110,18.340708,19.507254,21.393368,26.798509,31.421971,35.262878,37.520181,31.392654,21.578891,17.477306,15.086127,4.503398,-0.484208,-10.042866,-5.163562,11.858596,25.728652,25.951793,22.133345,22.978774,26.793679,30.583790,31.254964,24.613185,15.264558,11.315309,11.771783,9.140439,1.727853,-6.859287,-8.714180,0.870084,-7.136135,2.246017,3.367244,3.932400,8.346652,12.015488,14.644721,14.140492,4.509284,-8.842082,-14.106435,-13.476256,-18.443667,-28.000433,-33.237956,-33.847272,-28.319048,-14.643583,-4.210800,-6.110251,-5.361091,-4.518611,3.569385,11.200137,8.870939,-2.920849,-12.777793,-18.502384,-22.997025,-28.964030,-34.705615,-37.423894,-35.320875,-27.798453,-21.858411,-21.902409,-21.331990,-13.148569,-4.453437,-2.847756,6.504652,0.397803,-13.915108,-24.746017,-26.707483,-30.312693,-38.175460,-43.710226,-44.932066,-38.256684,-24.600415,-13.980228,-9.813726,-4.719142,6.484653,18.678157,23.641231,18.953103,8.492365,1.536976,5.240064,6.405565,2.137194,-0.962113,0.010527,1.557942,7.382898,16.988090,19.776142,15.749598,15.710918,24.762475,35.606550,38.145329,29.580899,17.415244,9.950248,6.687684,5.129223,0.876423,-0.252141,-7.331342,-1.998368,13.051878,21.624690,19.925553,18.760142,21.634317,24.054123,24.025787,23.855713,22.150484,16.916856,13.361758,14.092291,12.215725,4.239497,-4.328786,-6.381353,1.189732,-9.110563,0.952521,3.098318,-0.167574,-0.439101,6.290260,14.827508,12.980128,-1.843903,-16.736109,-20.887505,-19.788595,-25.029363,-33.999268,-38.087242,-33.181682,-21.170450,-9.740869,-6.179716,-5.473228,-4.412994,-2.256427,-2.844644,-4.182836,-10.976275,-22.730306,-27.750342,-25.341856,-26.410374,-33.561470,-39.400762,-40.933905,-38.166585,-28.504519,-18.153446,-14.619128,-16.007344,-15.723890,-10.874574,-2.165217,2.891768,-6.517490,-23.372784,-31.081460,-27.051192,-22.189990,-23.606199,-26.208499,-24.505904,-16.807769,-9.623783,-9.463974,-8.938709,-0.658695,10.065022,20.121056,30.497682,33.782830,21.764094,3.728722,5.144796,8.491993,9.945132,5.405100,-1.827278,-7.151239,-3.866092,6.628779,13.833913,14.049765,12.876705,18.315011,27.264868,29.926367,22.399496,13.384146,9.080101,8.287042,8.004543,2.732070,0.033465,-2.854272,4.287540,19.862971,29.076187,26.631437,20.733050,21.085434,25.493066,30.460489,33.392310,27.793192,16.967854,16.421067,23.657648,25.882462,21.500417,13.016460,3.235580,2.362804,-5.268824,11.081124,20.055837,16.759635,12.697108,15.873129,18.292854,11.461727,-1.714513,-8.629831,-6.177891,-5.452053,-12.345371,-22.350587,-29.160130,-29.066116,-22.160341,-12.434285,-6.979105,-5.185639,-3.947867,3.786937,4.619783,
4,-10.897145,-10.252333,-10.770796,-12.454132,-13.403919,-9.521711,0.390957,7.532575,6.201657,0.496740,-2.483614,0.459182,3.458411,4.390554,2.679478,3.924008,7.222934,6.275005,-0.721066,-8.466610,-15.362994,-17.511629,-7.313968,6.628495,10.714223,7.141637,6.109113,9.314984,12.757539,16.135024,13.445640,0.887544,7.013633,3.462259,0.933211,-7.378912,-20.479927,-27.776070,-22.574007,-12.880837,-4.404099,2.848222,7.867693,11.145427,17.372076,27.037832,36.032422,37.145103,26.464662,14.179412,8.377191,4.245363,-1.054982,-0.856074,-0.186265,4.459339,15.385753,24.198116,25.401685,23.401833,23.104047,25.413926,26.937177,23.179614,12.147156,1.645826,-0.018251,2.861149,2.090350,-2.624225,-5.376057,-1.058530,-10.727527,1.481530,7.817229,10.486037,15.294865,20.951078,22.462505,19.037441,8.184658,-7.086589,-16.166557,-20.745010,-28.111211,-32.353920,-30.661391,-30.521364,-28.221065,-18.647203,-9.885966,-6.523020,-4.449693,1.164352,11.806193,20.975498,23.172074,13.995870,0.146982,-5.774348,-1.267727,2.967392,-1.168290,-12.573911,-22.248454,-21.890738,-14.599420,-7.872993,-3.909785,-3.107960,-3.465512,0.919729,1.967926,6.461184,-2.864749,-15.616341,-22.100328,-23.523720,-24.193792,-26.418088,-28.404413,-27.360836,-21.195689,-13.917558,-14.335290,-17.857987,-14.695007,-7.455959,0.349293,8.610635,9.417701,-0.340126,6.022875,6.389143,6.967974,0.457055,-10.446161,-16.944462,-13.340881,-3.338700,6.058541,12.047045,14.322748,15.581319,21.018156,28.128381,29.306839,18.348092,3.146422,-1.704175,3.690011,3.522400,8.022716,1.246648,-1.567413,3.083393,13.901814,20.490468,19.951840,20.588269,28.301936,41.494860,54.368889,57.725687,46.466733,31.393315,25.006517,23.107222,18.596106,13.973628,8.340036,4.095358,-2.171560,6.269813,9.747187,8.465211,9.228879,11.643529,11.914849,11.548880,8.652016,2.231004,0.692953,3.545327,3.695952,-0.546984,-5.774931,-12.678974,-13.149835,-3.477870,2.446932,0.134947,-4.453547,-0.296910,3.084413,6.486790,7.006612,-1.559688,-13.815636,-22.364710,-27.710331,-32.055859,-32.704586,-32.359736,-34.324452,-31.301801,-20.494764,-12.706236,-11.839021,-11.195829,-7.779280,-1.791894,4.307914,12.063546,5.535565,-5.979054,-10.483551,-7.081382,-5.976221,-11.771962,-18.672717,-21.882824,-14.606842,0.150447,9.884034,9.388687,8.258945,13.289123,19.373308,20.705358,13.278907,-0.512641,1.998558,6.564692,10.813356,7.247414,1.569684,0.682937,7.089889,18.693198,25.095455,21.999187,17.406844,18.720804,22.143361,24.476728,25.123034,21.884316,14.462522,6.959509,2.477039,0.516779,1.692300,1.642448,2.377013,7.999517,16.813467,21.022358,20.429655,20.338801,20.753202,22.476226,25.811202,27.261409,21.930080,14.420392,13.935468,20.878372,23.552107,16.559615,5.803772,-0.012609,-7.116027,-1.689841,2.949860,3.410747,4.600952,11.129070,19.804168,25.235784,19.433937,3.809129,-7.227651,-8.064926,-7.290724,-10.792576,-17.957516,-22.872076,-20.322285,-12.493667,-6.271240,-4.039515,-6.465558,-1.829114,8.410453,18.654257,23.303548,19.459714,9.924283,2.498925,
3,26.467762,19.744026,16.924726,15.413821,9.715266,1.433006,-4.029019,-4.566884,1.423326,-10.392330,-4.514251,-4.448968,-6.090942,-0.234162,12.227864,18.202116,12.796074,-0.782275,-14.224427,-21.121356,-25.463505,-31.240782,-36.942553,-41.257634,-41.174293,-31.980240,-17.862627,-8.008045,-6.002517,-6.663556,0.832742,11.965147,17.832295,11.632947,-3.334003,-13.569528,-10.374455,-4.749467,-8.795093,-20.811704,-31.999515,-34.858571,-26.888754,-16.489772,-11.861162,-11.202283,-11.112319,-8.090275,-0.634973,6.103316,2.833529,-9.476771,-16.530455,-11.130701,-1.781005,-0.485182,-5.947370,-10.972037,-8.263984,3.971654,16.129399,19.603434,16.787594,16.375368,21.759897,26.433966,22.990013,11.320117,0.416006,7.162878,9.324675,8.046114,1.632825,1.290465,7.924707,17.641230,30.245712,39.243816,39.541191,38.943454,45.556188,54.384937,55.935196,46.412407,30.021956,16.269166,10.559297,8.597538,3.789009,-1.310939,-11.109070,-11.544627,1.486345,17.687874,26.464057,25.619058,21.557103,22.082477,28.499520,30.812625,21.426233,10.144833,7.872958,11.315183,14.176123,15.960432,11.972801,2.817955,0.500658,-7.747192,-3.751701,-8.256482,-11.456544,-2.446512,12.479377,19.127290,12.703794,0.815874,-8.329072,-14.623218,-18.258311,-20.925663,-25.516148,-31.620198,-36.327797,-31.428483,-18.611340,-8.265001,-5.077643,-7.376138,-7.641216,-0.280494,7.102135,2.802844,-11.782124,-22.356440,-23.623682,-23.387331,-31.450759,-43.917221,-51.089854,-47.971662,-37.465520,-29.074163,-25.600182,-21.746022,-17.013979,-9.206195,-2.724658,4.513228,-8.488075,-21.840992,-25.453995,-25.535952,-28.696120,-31.344154,-31.190101,-28.944407,-21.517915,-12.921864,-9.667893,-6.268042,2.265251,13.219149,20.080410,23.435392,22.970054,14.669950,3.820232,5.766716,7.783001,5.727821,-3.703907,-15.617628,-24.819151,-23.914656,-14.710698,-6.014205,-2.832488,-4.173237,-0.844530,10.245170,21.387010,19.271745,6.289740,-0.469038,4.284986,6.840989,1.687751,0.989290,-2.043444,0.270926,8.739230,17.268491,23.365914,27.838889,32.594976,37.941908,41.887581,43.940050,39.107526,29.098372,23.421095,20.984350,15.796930,6.567767,-2.094069,-4.979376,2.121182,-5.223162,0.662090,-2.656144,-8.375520,-7.993478,-2.207238,3.586203,5.390081,-0.292135,-7.556735,-11.799767,-14.217034,-17.104087,-22.356223,-25.668487,-21.735663,-11.552275,-4.412585,-2.810594,-2.940034,-6.231300,-1.249026,7.338844,16.030480,15.424202,3.018484,-10.188038,-15.896558,-17.908097,-22.223494,-30.943403,-37.768288,-34.898417,-24.533858,-13.974479,-8.419939,-8.969689,-8.122971,-3.978812,-0.936023,1.157282,-2.983163,-9.529628,-10.084842,-3.151650,0.566992,-3.931989,-12.951775,-23.395656,-24.467036,-13.469424,-3.906435,-4.781792,-8.699322,-6.562957,-0.276730,7.755221,12.728656,8.439236,-1.217482,4.673512,5.230103,6.595326,5.569636,0.253417,-5.453026,-3.149471,4.664222,11.488100,13.522116,11.266131,13.219900,23.383081,31.355222,24.835768,7.724050,-3.980709,-4.079401,0.626968,2.237277,2.600275,-6.075567,-6.032456,5.733110,18.124696,21.545919,18.200445,18.491981,26.224273,33.901101,36.126271,
1,-1.172692,0.628104,1.126909,-6.473422,-19.169850,-27.659144,-22.037883,-6.502451,3.650958,0.626347,-4.072086,-1.339945,0.249710,0.021254,-5.495652,-20.208727,-34.125897,-36.555287,-33.905217,-35.684197,-39.500920,-41.064262,-40.183276,-34.267185,-25.525383,-18.767430,-12.103048,-3.242122,5.405309,10.529044,11.018731,0.663863,5.324559,-2.474417,-1.268440,0.039892,-1.652248,-5.947931,-8.250470,-4.963428,3.609378,10.763870,12.095709,13.400287,17.472728,21.407880,26.000316,26.744328,18.233929,8.262845,5.724522,3.612116,5.414743,-6.591668,-12.715829,-11.358041,-6.818811,-0.198855,5.100897,4.879293,3.234958,6.966289,14.571453,21.848379,23.594762,16.308052,7.285459,6.223947,8.320232,6.470785,3.071822,-0.380687,-2.085953,0.047800,9.192741,14.854574,12.639265,10.153040,14.602384,22.894044,27.335022,23.432580,16.194235,12.027759,10.241182,8.242785,5.741104,1.644927,-5.536704,-10.994497,-8.318907,0.199861,-6.310535,-5.919189,-6.366504,-3.552927,3.421236,8.655821,3.650815,-6.793636,-11.577229,-12.599491,-16.259782,-23.557283,-30.991001,-33.859756,-27.162188,-12.896745,-2.661687,-1.555080,-4.374798,-2.018519,0.953074,14.447877,15.416745,0.556947,-12.234328,-12.459978,-10.122978,-14.626383,-22.273322,-26.767003,-25.610702,-16.807770,-4.961627,1.024240,0.746274,2.100854,6.284291,7.992836,5.322673,-1.030076,3.006763,-4.281725,-7.984262,-9.809533,-15.666658,-24.765190,-30.515121,-30.526878,-24.011327,-17.279774,-15.843963,-16.916079,-13.508748,-2.935035,11.191550,19.957059,15.147098,6.246835,2.640991,2.213846,2.726004,-5.612166,-12.403624,-15.045179,-8.933590,5.934428,17.062207,14.553117,7.010569,7.638010,14.138923,21.516823,22.675257,11.217802,1.848063,4.969672,9.586291,6.101603,0.119320,-0.656825,-6.747115,2.977531,17.804598,24.339736,21.088949,16.258590,15.255375,19.486377,23.359032,17.081143,3.260880,-8.393218,-11.872239,-11.066898,-11.967537,-15.164119,-20.046232,-20.603085,-11.623509,-2.095953,-2.867772,-2.654854,2.537480,11.809290,18.360719,17.291989,7.303409,-3.304625,-5.231625,-2.377014,-4.640119,-9.620172,-14.416309,-20.327563,-19.852872,-9.991069,-2.640886,-2.000951,-3.769790,-1.345821,1.164995,12.368586,10.749683,-3.597837,-17.580325,-22.204359,-23.776738,-28.104479,-34.094814,-36.955189,-35.793256,-27.716875,-16.934108,-13.753219,-15.782672,-12.131124,-2.307432,6.579358,8.420004,-1.994926,7.677578,-1.673576,-0.657381,1.421910,-3.640249,-12.148710,-16.408632,-12.125491,-2.305082,7.546472,13.622717,17.516865,22.321784,27.830003,32.333700,33.424705,25.394492,11.734183,4.834541,5.685970,4.295041,-2.883881,-12.038508,-15.467707,-9.570386,1.654510,7.807989,6.891010,6.504483,11.249267,17.326162,22.135912,21.779201,12.556650,1.868818,-3.483800,-3.000779,1.318243,3.673556,0.865384,-6.693584,-0.320527,12.284219,19.330577,19.728958,22.890260,31.025869,38.947660,42.067998,33.799735,18.156216,6.951274,4.799234,7.014910,5.613607,-1.588881,-12.476266,-18.531773,-12.838136,-1.477596,-2.943193,-5.654303,-8.383750,-7.035039,-0.911730,2.782567,-5.055807,-18.730547,
2,-2.291867,-3.196252,-0.423603,4.295319,-4.455893,-19.984172,-26.896629,-24.600551,-25.003392,-33.112769,-40.636458,-41.982389,-39.158642,-32.973441,-26.535153,-20.752280,-15.433463,-8.487474,0.176788,5.450291,3.523882,-0.711721,7.582627,2.796011,-4.753379,-9.372961,-15.270685,-24.355036,-29.235041,-19.220280,-1.320884,8.552454,9.488473,8.475347,11.500672,18.051467,22.614169,20.374633,12.918125,6.729321,5.192308,3.990578,4.399340,-4.242469,-13.967645,-20.076470,-16.969339,-6.646759,0.890643,4.742118,13.806789,25.883649,30.871557,27.169236,17.775268,4.788092,-3.593998,-3.472853,2.849522,5.870975,3.889201,3.101739,-7.620225,5.124125,15.492055,17.095069,18.345260,25.155322,35.838539,43.508797,41.680583,33.268982,23.189683,13.658977,4.593759,-1.988471,-6.069608,-11.030942,-14.953157,-11.616329,-4.299929,-1.982820,-4.172492,-5.634315,-2.311590,6.696549,16.891102,20.373207,11.044143,-0.594670,-3.941662,-2.995113,-5.553152,-11.213753,-17.774732,-22.833745,-20.088287,-12.335690,-11.073123,-14.097588,-11.305920,-2.094789,1.442693,2.655820,-2.373786,-9.652424,-17.486608,-24.383072,-27.548766,-28.590846,-31.816681,-36.333841,-35.050102,-26.573436,-15.512016,-7.874207,-5.568570,-5.803855,-3.289004,4.266853,7.554398,-0.635871,7.349378,0.738789,-1.807834,-4.897035,-12.335758,-21.731342,-25.891539,-20.124511,-8.038838,2.356476,6.752002,8.237875,14.103799,25.539037,34.832410,35.072294,25.946618,14.742861,8.448051,6.048764,6.492857,4.694647,3.479127,5.050808,12.414164,21.673620,25.633545,26.198241,31.471939,40.858785,46.962838,48.788060,45.438311,34.417343,21.428796,16.476192,16.562932,13.692291,6.467420,2.291338,-3.433085,6.825853,18.437286,21.407260,13.942086,9.448336,14.732844,24.202708,28.865291,22.128220,11.699386,6.786947,3.499324,-3.954794,-14.066453,-21.826432,-22.925243,-15.253133,-5.200080,-2.655799,-3.106878,-3.188701,4.576864,15.187433,19.940629,11.934096,-3.734506,-13.667495,-12.367163,-8.235774,-9.275564,-15.988733,-23.777449,-25.743843,-18.190007,-10.117993,-5.529811,-4.527432,-4.812779,-0.287736,1.176488,3.573682,-3.824834,-16.922282,-22.522021,-17.227531,-12.842422,-15.770423,-24.815384,-32.381269,-30.172160,-17.892249,-6.745835,-6.737329,-11.271244,-9.552200,-1.484917,4.925782,3.774974,-2.642362,8.201335,10.469594,13.160272,10.372006,2.403170,-5.448128,-7.584057,3.292926,20.880071,30.374326,31.272329,32.770403,34.464550,34.850442,34.823421,29.878492,16.510319,6.913221,5.181170,5.407792,7.866479,1.888829,-2.545415,-3.634027,1.225120,8.734052,13.894681,15.208798,16.178068,25.104022,41.388048,50.731391,42.835138,26.700224,18.127419,18.817330,19.370391,15.786868,9.966851,3.210251,-6.654407,1.216006,13.121418,18.770587,19.772713,24.237439,30.674855,33.195498,32.210353,25.830855,14.268892,4.536801,-0.352624,-3.686140,-6.050045,-10.730185,-16.311948,-15.880267,-8.919619,-2.614022,-1.924292,-3.368040,-1.102216,2.367349,1.034732,-6.106071,-18.461142,-29.736637,-30.638778,-25.573852,-25.148206,-28.468240,-31.340407,-30.271208,-24.667191,-16.534944,-10.681098,-10.512322,
