1,3,0.492436,2.792806,3.693950,3.095867,3.098557,4.802022,5.306260,3.811273,1.817060,0.123621,-1.069043,-2.760934,-4.152051,-5.642394,-6.831963,-7.420760,-7.908783,-8.896034,-9.582513,-9.468221,-9.453157,-10.637324,-13.320720,-15.103347,-14.385206,-12.066298,-11.946623,-13.526182,-15.404976,-17.583006,-19.960273,-21.136779,-21.312524,-21.387509,-22.061736,-24.035207,-26.507922,-28.279883,-29.551091,-30.421548,-29.891255,-28.860214,-25.528428,-21.095896,-17.462622,-15.028606,-12.993852,-11.158361,-8.022134,-3.485174,0.252517,2.090937,3.530083,5.669954,7.310547,8.451859,10.293889,13.136634,15.580091,16.824257,17.869131,19.014709,19.960988,18.907966,15.955640,14.904007,15.653064,16.402807,16.253235,14.804343,14.856128,16.508588,20.261718,24.215516,26.169978,25.725100,23.780879,22.037312,21.294394,21.352122,21.310493,20.569502,19.529145,18.689419,18.750319,17.911842,15.273984,11.236739,8.700105,9.164076,11.928649,13.093818,10.759581,8.225931,6.392865,5.060378,2.628465,-0.002878,-0.133656,1.836126,3.106463,2.177350,0.648783,-0.179244,-0.606736,-1.633698,-3.160135,-5.786052,-9.111454,-12.236348,-13.060738,-12.084629,-11.108027,-11.230938,-13.453368,-15.175321,-13.596803,-10.717821,-10.038379,-10.958485,-12.078142,-13.797359,-16.016139,-17.334490,-16.452417,-13.669927,-9.987025,-7.403718,-6.820011,-8.135912,-8.551426,-6.666560,-3.181319,0.104289,2.590258,4.776582,5.363254,4.850268,6.537617,11.325294,17.213294,19.301608,16.390231,12.679155,11.568375,12.257882,13.447671,15.537734,16.028064,13.818655,10.609500,10.300590,12.291921,13.383483,13.375272,13.567278,13.559495,13.151916,12.644534,12.237341,13.030331,14.523495,16.716827,16.910320,14.303966,10.097757,6.691687,3.785748,0.379932,-1.525768,-1.331359,1.563152,5.557756,8.052447,8.747216,7.742057,5.736962,2.731923,-0.273067,-2.678016,-4.682931,-6.887821,-7.192691,-4.697550,-1.902407,-2.107267,-4.112139,-4.317030,-4.621948,-5.826900,-7.031895,-6.936939,-6.042041,-5.947207,-5.852446,-7.457765,-10.063172,-12.868673,-14.074277,-12.579992,-10.785824,-10.691782,-10.397872,-8.604103,-4.910482,-1.617016,0.376287,-0.730581,-2.637626,-3.344857,-3.352280,-3.459903,-4.067734,-3.475780,-2.084048,0.207454,1.298720,1.089741,0.280511,0.171022,-0.138733,-0.548761,-0.159069,1.530335,3.519445,4.008253,3.396752,3.284935,4.372795,4.160326,3.047520,1.234370,0.820869,1.807011,3.392789,5.378195,7.063224,7.747868,7.632121,7.415975,7.799426,8.382465,8.265087,8.247284,8.129051,9.510381,10.791268,11.671705,12.851686,12.831205,12.310255,11.388831,9.266926,5.944535,3.021650,1.498267,1.374379,1.149981,0.425067,-1.100370,-3.626334,-6.252832,-7.779869,-9.507451,-11.935583,-14.664271,-16.993519,-17.823335,-16.753721,-13.484685,-11.216232,-10.548365,-10.881091,-10.814415,-12.048340,-13.782874,-15.118019,-15.953782,-15.190166,-13.927177,-13.964818,-14.603096,-14.942013,-15.781575,-15.921787,-16.362651,-17.404173,-18.246357,-16.789207,-13.132727,-9.576921,-8.821793,-10.867346,-13.713586,-14.160515,-12.108137,-9.756457,-9.705476,-10.255200,-10.105632,-7.856774,-4.908630,-1.361204,2.685501,5.331483,6.576737,7.021262,6.065054,5.508109,5.550427,4.892002,4.332834,5.272918,7.112254,7.050837,5.288666,3.325738,2.562051,1.397603,-0.567609,-2.133586,-2.200332,-1.167847,-0.736134,-1.605194,-2.275031,-2.945644,-4.817037,-6.489210,-5.962165,-3.635905,-2.210429,-1.485741,-0.461840,0.061271,-1.116408,-3.694879,-6.274143,-7.954201,-10.335053,-13.916702,-15.399148,-13.982391,-11.866432,-11.751273,-13.036913,-14.523354,-13.710595,-12.198639,-10.187484,-8.877131,-8.067581,-8.958833,-9.250889,-7.143748,-5.637411,-6.731877,-10.127146,-12.523220,-14.420096,-16.717776,-17.716259,-15.415545,-13.515633,-14.616524,-18.118216,-21.320711,-21.824006,-20.628102,-19.032998,-17.638693,-17.245187,-17.652480,-15.960569,-11.769456,-8.479138,-8.389615,-9.300886,-9.312950,-8.025807,-6.539455,-5.253892,-4.469119,-3.385134,-1.001936,2.280477,5.362106,5.142951,4.823015,6.502299,10.780803,14.558530,16.335480,16.711656,17.187059,18.861690,21.235551,21.008643,19.380969,18.252529,19.323326,21.893361,23.362637,23.031153,21.098914,20.265920,20.632173,22.097675,24.062429,25.526435,25.589696,23.852215,21.113992,19.575030,19.135332,16.994898,14.153732,13.211836,12.969211,14.525860,15.981785,16.636988,17.291472,18.345239,18.498291,17.950631,16.502260,15.453181,16.103398,16.252911,15.601724,14.649838,13.697257,12.543984,11.190019,9.635367,9.180030,9.224009,10.367309,11.709931,12.351879,10.993154,8.833760,7.473700,7.612976,8.551590,8.689547,6.826848,5.263496,5.699495,7.534847,8.369556,6.803624,3.337053,0.169849,-1.197988,-0.566454,1.364455,3.994742,7.724409,9.953460,11.181898,12.009727,12.636948,13.863567,15.789586,18.315008,21.239837,23.264077,23.087730,22.310800,23.133291,26.155206,28.076549,28.097323,26.717532,25.437180,24.356270,23.474806,22.392792,21.810232,20.827129,19.543487,19.259311,19.874604,19.589370,17.003613,13.817338,11.930548,11.843248,12.555441,13.367132,13.978325,13.589025,12.399236,11.008962,9.318207,7.026977,4.235276,4.143108,5.150477,5.457390,3.563849,-0.030139,-1.924571,-2.719441,-3.114745,-4.510477,-6.306632,-7.603206,-10.400193,-13.997589,-17.495388,-19.693584,-21.192173,-21.791149,-21.290507,-20.590241,-20.090346,-21.090816,-21.691646,-22.092830,-24.094362,-26.396237,-29.698448,-32.500990,-34.303857,-36.107043,-37.910542,-39.114348,-39.318455,-39.722856,-41.627545,-45.332516,-48.037763,-48.243279,-46.549058,-44.655093,-43.761377,-43.367905,-41.874669,-39.481663,-35.488880,-32.096313,-30.503954,-29.511799,-28.619838,-28.128066,-27.336475,-24.345058,-21.453808,-17.962717,-14.771779,-12.380986,-11.490331,-10.499806,-8.009404,-4.819117,-3.728938,-6.738859,-10.348872,-11.058971,-9.669146,-8.979391,-9.389698,-8.200059,-5.110465,-1.520909,1.168616,1.758120,1.747610,2.037093,0.926579,-1.583925,-2.294411,-1.204870,1.784706,2.974324,2.163994,1.153724,1.143521,3.133395,5.423353,5.113404,2.303556,-0.906181,-2.515801,-3.725294,-5.634652,-8.843866,-11.252928,-11.261830,-9.170562,-7.779117,-8.987486,-12.495660,-14.403630,-13.511389,-12.618928,-12.826237,-13.233310,-14.140136,-13.646707,-11.753016,-10.059053,-10.264809,-10.570277,-9.975448,-8.780314,-9.384865,-11.289093,-11.992990,-10.696548,-7.599758,-4.802612,-4.005101,-5.007217,-6.208952,-6.210297,-5.111244,-4.911785,-4.711912,-3.911616,-1.810889,-0.009724,0.691888,0.893955,1.396484,1.199485,1.902964,3.606929,7.211389,9.616351,11.221822,12.127811,13.334325,14.141371,13.148958,12.557092,13.565781,16.275031,19.084852,19.195249,17.706229,14.617800,12.729969,12.042743,10.556128,7.170131,4.384759,5.500019,7.815917,9.932459,11.749653,14.267503,16.986017,18.205201,17.725061,18.445602,19.866830,20.988752,20.611373,19.934698,19.658733,18.883484,16.508956,13.735154,12.462083,11.289749,9.318155,6.147308,2.777211,0.807869,0.339288,1.371470,-0.095579,-3.761855,-6.427354,-8.292073,-9.856007,-10.919152,-12.481506,-14.443064,-15.703823,-14.663780,-11.622932,-9.081275,-8.338807,-8.095525,-7.751426,-7.706507,-9.160767,-11.614202,-12.966811,-12.718592,-10.369543,-7.919661,-7.268946,-9.717395,-12.765007,-13.911782,-13.357717,-13.602812,-14.347065,-13.890477,-12.533046,-11.474772,-10.815655,-11.855694,-12.194890,-10.633241,-6.870749,-3.907414,-2.243237,-0.678217,2.287644,5.954346,9.821887,12.390267,14.459483,17.229536,19.900422,21.272141,21.844690,24.218068,26.892272,27.067300,25.543150,24.919819,24.097304,23.975603,23.054713,21.634630,18.715351,16.196874,15.279193,17.862306,21.046209,22.730898,22.716369,23.102617,23.589638,23.777428,22.865981,22.755294,24.145361,26.236178,28.127738,30.120037,32.513069,33.506828,32.101310,29.596507,27.492415,25.989026,24.586334,23.084334,21.783019,20.982381,21.582415,23.283113,24.684468,23.886473,21.189121,18.592405,17.296316,16.100847,15.305992,13.811740,11.118085,7.725019,5.532533,4.640619,4.249269,3.558473,4.268224,4.578512,4.189328,2.500664,0.212511,-2.175141,-5.762301,-8.248979,-7.735183,-6.020924,-4.206211,-3.591054,-2.375463,-1.459447,-1.443018,-1.326184,-0.208957,1.508654,1.826638,0.344984,-1.236317,-1.117277,0.302094,0.121785,-2.158214,-3.237916,-3.217330,-1.796468,-1.375341,-1.353960,-1.132336,-0.610480,1.311595,4.433879,5.956361,6.879028,7.601870,6.824874,3.848030,1.371324,1.094746,3.418285,6.241927,6.965661,5.089476,4.913359,8.237299,11.861283,13.985300,13.009337,12.233384,12.857426,14.181454,15.005453,16.629413,19.253322,21.577166,21.800935,20.624615,17.148196,11.271664,6.495008,4.818215,5.941274,6.764173,7.986898,8.909439,7.431783,3.653918,-0.224167,-2.502485,-4.081049,-6.759868,-10.738957,-12.718326,-11.397987,-8.777953,-8.558234,-11.238843,-14.419792,-16.601092,-17.082754,-18.664791,-22.347213,-24.630033,-23.913261,-21.596909,-18.280989,-15.365512,-14.150488,-16.735929,-21.221846,-24.008251,-22.295153,-19.882564,-19.270496,-19.158957,-19.847960,-21.337514,-22.527630,-22.518319,-22.609592,-22.401457,-22.593926,-23.487008,-24.580714,-23.975054,-21.370037,-19.165673,-16.561972,-13.458943,-10.056596,-7.854940,-6.553984,-5.153738,-4.554211,-4.655411,-6.057348,-7.260031,-7.363467,-6.867665,-7.072635,-9.778383,-12.084919,-12.992251,-13.300386,-14.709333,-16.319098,-17.029691,-16.941117,-15.953386,-15.666503,-14.480477,-11.495314,-8.511021,-6.027604,-4.045072,-2.663429,-3.982683,-5.302840,-4.723905,-1.845886,0.031212,-1.092616,-4.117376,-5.243075,-4.769716,-4.397306,-5.625849,-7.055351,-8.785816,-9.617250,-10.749655,-9.983038,-9.217403,-8.652752,-9.889091,-12.326424,-13.564753,-14.604084,-14.744418,-13.285760,-10.328113,-7.371479,-5.415862,-4.261265,-4.007689,-5.855138,-9.103614,-10.753119,-10.003654,-7.255223,-5.007827,-3.961467,-4.116144,-4.471861,-3.528619,-3.786417,-4.945259,-5.405143,-3.766071,-0.828044,1.408939,2.044877,1.279771,0.313619,1.346423,3.078182,3.608898,3.138570,2.867201,3.394789,4.521338,4.246847,1.771318,0.794753,3.517154,7.238521,9.058857,8.778164,8.196445,9.513700,11.629934,13.345148,15.259345,17.972528,20.084700,20.795864,19.506023,17.315181,14.723341,13.030507,13.736683,14.541872,13.946079,12.549308,11.551563,11.152848,10.953168,11.052528,11.850933,13.948387,15.244895,15.440463,15.335097,15.928800,17.121580,17.113441,15.404390,12.994433,9.883575,6.471822,2.959181,-0.354341,-2.268738,-2.984004,-2.600132,-1.117115,-1.034946,-2.953618,-6.273123,-7.393455,-6.014606,-5.436568,-6.559335,-8.182897,-9.707247,-10.332378,-8.558281,-6.284948,-5.912371,-6.340542,-7.169451,-7.099091,-7.929453,-9.460528,-11.392307,-11.324781,-9.957942,-10.991779,-13.226285,-16.561449,-18.897262,-21.033715,-22.470798,-23.308501,-22.346815,-19.385730,-16.025236,-12.465323,-10.705981,-10.247200,-10.788969,-11.431278,-10.074118,-8.917477,-7.761344,-6.605711,-4.750565,-3.995896,-4.141693,-3.187946,-1.134643,-0.581773,-2.229327,-3.177291,-0.825656,1.425590,2.076458,1.426959,0.277105,-1.073092,-1.823622,-1.474473,-0.425633,0.022909,0.571165,1.119146,2.166865,3.914332,5.261561,6.208561,7.755346,8.301927,7.648316,7.094525,7.740566,8.386451,8.632192,8.877800,8.323289,6.668669,4.213953,2.259153,1.404281,0.149349,-2.605631,-5.660646,-7.215685,-8.870736,-11.825786,-13.180823,-13.835835,-15.090811,-15.945738,-14.800604,-12.055396,-9.410104,-7.664714,-7.219216,-9.873596,-13.427843,-15.881945,-16.335890,-15.389666,-14.643261,-14.596663,-15.249861,-17.102843,-19.055596,-20.808110,-21.860372,-21.412372,-20.064096,-18.715534,-17.766675,-16.017506,-13.568016,-12.218194,-11.268029,-8.917510,-5.266624,-1.415362,1.836289,3.688339,5.640799,7.793679,9.346992,11.000747,12.654955,15.109628,16.964774,16.820406,16.376533,17.133166,19.090314,20.947988,21.006199,20.764955,21.224267,22.884145,24.544599,24.605637,23.367270,22.929507,23.192357,23.855830,24.419934,24.384679,23.850074,24.616127,27.182847,29.450243,27.618323,23.987095,23.056568,24.926750,25.797649,23.869273,19.941629,18.214726,17.988570,17.463170,16.238532,16.414664,16.791572,15.369264,12.547747,10.027026,9.207109,9.688001,8.869710,5.352240,2.035599,0.819792,0.904824,0.090702,-1.422570,-1.834987,-1.346543,-1.357233,-2.367052,-3.975997,-5.184061,-6.291242,-7.797535,-9.802935,-11.907440,-13.311045,-13.013746,-10.615541,-8.516426,-8.216399,-9.515455,-10.913593,-12.110809,-12.207102,-10.502470,-7.896909,-5.090419,-2.682997,-1.274643,0.434646,2.144871,4.356032,4.768131,4.081168,3.695144,4.810059,6.625913,7.942705,6.660437,3.179108,0.898716,1.319262,3.640743,7.963160,12.986511,15.410793,14.336007,12.062149,10.089217,8.617210,8.746125,9.075959,7.506709,3.138372,-0.629054,-1.895574,-1.661190,-1.625908,-2.089730,-1.252661,-0.114706,0.724131,0.263845,-1.695568,-4.154115,-5.811801,-6.668630,-6.824610,-6.279746,-6.534044,-8.587510,-11.040153,-12.991977,-14.742991,-16.693202,-18.242617,-18.391243,-16.739090,-14.586164,-14.132475,-14.678030,-14.822839,-14.666911,-13.710254,-14.152879,-15.794794,-17.036010,-17.676537,-17.416384,-16.755563,-17.194085,-18.531959,-18.469198,-15.205812,-12.141813,-11.077214,-11.212026,-11.046261,-10.479932,-9.413052,-9.245633,-10.177688,-11.309232,-12.140278,-10.970839,-9.500929,-8.830564,-8.959756,-7.588522,-5.916876,-4.144834,-2.972410,-2.299620,-1.426481,-0.853008,0.020782,1.994873,4.169247,6.443889,8.018779,8.693902,10.569239,13.044772,15.320483,17.096354,18.272366,19.748499,21.124736,22.601055,25.177439,27.153866,26.230317,23.306772,19.883209,17.759609,17.435950,19.512210,23.088369,25.364404,25.840294,25.316016,22.491547,21.066866,21.341949,23.116773,25.091314,25.865550,23.839455,22.413006,22.886179,23.958948,24.131290,23.303178,21.274588,19.745495,19.215871,18.285692,17.354931,18.723561,21.791556,23.158889,22.025532,18.491459,14.556641,11.621050,10.584659,10.647438,10.809360,10.570396,8.530516,3.989690,0.947891,-0.794913,-1.738752,-3.383654,-6.529653,-9.876777,-11.125057,-11.174526,-11.525214,-13.477154,-16.230376,-19.084913,-21.740798,-25.098063,-26.556741,-25.416865,-23.378468,-22.341583,-23.106245,-24.072488,-23.940344,-23.709850,-23.481040,-25.053947,-27.828609,-29.805059,-29.283334,-27.063469,-25.345500,-23.329463,-20.915396,-19.103333,-17.393314,-15.085373,-13.079550,-12.075881,-11.274405,-9.475158,-6.978180,-4.683509,-0.591184,4.598757,9.486275,11.971329,11.853881,10.133891,9.011318,9.986123,11.358265,11.127703,11.094397,13.658305,17.319387,18.377600,15.332903,10.985254,9.234610,10.580930,11.724171,10.064290,8.101243,7.934988,10.465481,13.092679,13.516537,11.637012,9.054059,7.667633,6.877690,5.284185,3.387073,1.686307,0.481844,-0.326364,-0.738361,-1.754195,-4.673912,-7.397559,-9.025182,-9.356828,-10.392546,-12.532381,-14.976383,-16.124598,-15.777075,-15.333863,-14.895010,-13.860564,-12.130576,-11.405092,-10.784165,-11.267842,-12.756173,-14.149209,-15.847000,-17.349596,-16.557048,-15.369407,-15.986723,-17.409049,-16.136435,-14.068933,-13.106595,-13.149472,-13.397619,-13.351086,-14.109926,-14.174193,-12.543939,-9.919218,-8.900083,-9.386589,-10.978788,-10.976735,-8.780485,-5.990091,-2.905609,0.972906,5.245400,7.911816,8.472100,8.526196,8.674047,9.715597,10.050791,9.579571,7.901881,6.017664,4.826862,4.629418,4.925275,4.514375,3.996659,5.072070,6.740549,7.402037,7.756476,8.203807,8.743970,8.276906,5.402555,1.920858,0.831754,1.735183,2.531085,2.419399,1.500064,0.173019,-0.261797,1.795554,4.945011
1,3,-9.607279,-8.848719,-9.089753,-10.030380,-11.970597,-14.110402,-15.649792,-14.688766,-12.827321,-12.465455,-14.503166,-19.440452,-24.377309,-26.313737,-26.049732,-24.485293,-21.920417,-18.855102,-17.289346,-17.223145,-15.456499,-13.789405,-13.321860,-13.353862,-12.585408,-11.616497,-11.247127,-11.177294,-9.806997,-6.336232,-2.964999,-0.893295,-1.421116,-4.548462,-8.175329,-10.901716,-12.227620,-12.853038,-12.977970,-13.402411,-13.126361,-10.249816,-5.272774,-2.295234,-2.917193,-4.738649,-5.359599,-3.480042,-1.599975,-0.619396,1.361697,3.243306,3.925433,4.008081,4.191252,4.574947,5.759169,6.743920,7.229201,7.315015,8.501363,9.488248,7.075672,1.563636,-2.147858,-2.958808,-2.769212,-3.579068,-5.088375,-6.397130,-7.605333,-9.112981,-10.720073,-12.426608,-14.932583,-16.037998,-17.542850,-19.547138,-20.950862,-20.854019,-20.256608,-18.958628,-17.660078,-17.460956,-18.761262,-20.760993,-22.560151,-22.258732,-21.156736,-18.954163,-17.151011,-15.547280,-13.842969,-11.338077,-9.032603,-8.926547,-10.819909,-11.812688,-11.904883,-11.096494,-11.087521,-11.977963,-12.867821,-13.257094,-11.845783,-8.533887,-5.021405,-4.108340,-4.494690,-5.180456,-5.765638,-5.350238,-2.034254,3.282312,6.199459,7.117188,6.735496,5.854384,4.573850,3.593893,4.614512,6.135706,6.457474,6.279814,5.602725,6.026206,7.050254,8.974869,11.500048,13.325789,13.852091,13.778952,15.206370,18.334341,21.762865,23.791939,23.521560,22.951725,23.282433,24.213680,24.945463,23.777780,21.810628,21.244003,21.377903,22.612324,23.247262,23.582715,22.918678,21.755148,21.492121,22.429594,23.067562,24.906022,27.144969,28.884399,29.124307,27.764690,25.805543,24.146861,22.388639,20.130873,17.873557,18.516687,19.360258,17.404265,14.748701,14.193562,16.238842,18.184536,17.230638,13.177143,9.124043,7.171334,6.519010,5.567064,4.915490,4.364281,3.913432,4.162936,6.012785,8.962975,9.613497,8.064344,6.915511,7.966990,9.118773,8.570854,6.123225,3.075879,2.428808,3.882005,5.135463,6.089172,6.643127,8.397318,10.651738,12.906378,13.461232,12.216289,11.171543,12.426985,15.282606,17.038398,17.394353,16.350461,16.506714,16.463104,15.019621,13.976256,14.733001,15.489847,14.446784,12.403803,11.360895,11.118051,10.375261,8.332517,7.189808,7.147125,7.904459,9.961799,13.019137,15.076462,16.733766,18.591037,19.248266,19.205444,17.962560,15.719604,13.476567,11.733438,10.090207,8.446865,7.203400,6.659804,5.916064,4.272173,3.228118,4.083890,4.739479,1.994874,-2.349935,-6.294959,-7.640208,-7.885692,-8.231422,-9.277409,-10.323662,-12.470192,-16.217010,-19.864125,-21.211550,-21.059293,-21.007367,-21.055780,-21.704544,-22.753668,-24.403165,-25.153043,-25.103314,-24.453988,-23.505075,-22.956586,-24.508532,-25.460922,-24.713767,-22.867078,-21.620864,-21.975137,-22.929907,-22.685183,-22.440977,-22.997298,-24.454157,-24.111563,-22.269528,-20.428060,-21.887172,-24.346871,-24.207169,-20.568075,-16.329600,-13.291753,-11.054544,-8.417984,-7.282081,-9.146846,-10.512288,-8.678417,-5.245243,-1.112775,2.718977,5.650003,8.080296,8.509844,7.738638,6.666670,6.293931,6.220410,7.246099,8.370989,8.395071,7.318337,5.940776,4.262381,3.283143,2.503052,2.622102,4.140282,4.957585,3.374002,2.389525,1.804146,0.417856,-2.069352,-3.257487,-2.346556,-1.836567,-3.827528,-9.019448,-14.712332,-18.206189,-20.501027,-21.796852,-21.593672,-21.291494,-21.390325,-22.590173,-23.591044,-23.092945,-22.795882,-22.499863,-22.904894,-22.910982,-21.218133,-19.626352,-18.435648,-17.346025,-16.757489,-17.270047,-18.083705,-17.098467,-14.814341,-12.331331,-11.649442,-11.568681,-10.289052,-6.910561,-4.033213,-3.557012,-3.581964,-3.608073,-2.735344,0.336219,3.006611,2.875827,3.043864,4.110717,5.076382,5.040855,4.704133,5.966212,7.227088,8.486757,9.845217,12.302463,15.658494,17.913304,17.966893,17.719255,18.770390,20.320295,22.568966,25.016401,26.162598,26.307555,25.851270,24.993740,24.334965,25.174941,26.013667,24.851143,24.187366,25.622334,27.756048,28.688506,26.519706,22.449648,19.378332,19.005756,19.831920,20.856824,20.880467,18.902850,16.023972,14.343833,12.962433,11.579773,9.295853,6.110674,3.524237,1.036541,-0.552411,-1.442620,-0.634083,-0.926800,-3.120768,-4.615988,-3.812457,-2.010172,-2.009134,-2.409339,-1.510785,-0.013470,-0.317392,-3.022548,-5.228937,-5.936554,-6.045397,-6.055464,-6.266750,-6.879254,-5.992971,-5.807899,-5.224033,-3.641369,-2.159905,-1.079636,-1.100559,-2.122668,-3.445959,-4.970429,-8.096072,-11.622884,-14.350860,-14.779996,-13.610285,-12.041724,-9.274305,-6.508026,-5.442878,-5.978858,-7.715959,-7.754175,-5.093500,-0.433928,1.924546,1.781931,2.838232,4.793455,6.347609,6.100698,3.552732,0.403715,0.053657,1.302564,1.350444,0.497305,0.843153,1.687998,1.631846,1.074707,1.616588,3.357497,3.797444,2.836436,0.774483,-1.888408,-4.452226,-5.716963,-3.782610,0.750843,4.183404,4.715084,2.445892,0.775837,1.804930,3.433180,2.960598,-0.612807,-2.587024,-1.862042,-1.437852,-3.814443,-7.191803,-9.569923,-10.548791,-12.528397,-15.508729,-16.789775,-17.571526,-18.153968,-19.337091,-20.520884,-20.005334,-17.690429,-13.876159,-10.062510,-8.149470,-9.037028,-11.325172,-13.713888,-14.903164,-16.392988,-17.283347,-18.374229,-19.665620,-21.857508,-23.449880,-23.742722,-22.536022,-19.829766,-17.523941,-15.718534,-14.213531,-13.808918,-13.704682,-15.500810,-17.497287,-18.994100,-16.591235,-12.888677,-10.186413,-9.484430,-9.582711,-9.481244,-8.880014,-7.279007,-5.378208,-2.877603,-0.477177,1.923084,2.823194,2.523170,2.423024,2.422773,2.522430,2.522011,2.921530,4.521003,6.820445,9.619870,10.919293,10.018730,8.818196,8.417706,9.317275,11.816918,13.816651,15.716488,16.316446,15.516539,14.616783,14.617193,15.317785,16.718573,17.019574,15.720802,13.722274,12.424004,11.726008,12.928301,14.030899,13.833818,11.137072,7.840678,6.344650,6.649004,7.453756,7.158921,6.064514,4.670551,3.177047,1.984018,0.691478,-1.800556,-5.192070,-7.283048,-7.873475,-7.663336,-7.452615,-6.941297,-6.129368,-5.316811,-6.203613,-7.589757,-8.175229,-9.360015,-10.544098,-11.427464,-11.410098,-11.491986,-13.373113,-13.653464,-12.533024,-12.611779,-14.489714,-16.366816,-18.143068,-19.318458,-18.492970,-16.066592,-15.139307,-15.511103,-14.681966,-12.351881,-9.520834,-10.088812,-11.855802,-11.521789,-6.486759,-0.250701,3.786401,5.024558,6.063785,7.004095,7.745500,8.988013,10.031648,9.876416,8.122331,6.269405,5.517651,4.567080,3.517705,3.269539,3.422592,3.676878,3.632407,3.089191,0.847243,-0.293428,-0.332809,0.029111,-0.207657,-0.343102,-2.277214,-4.609982,-5.541396,-2.571444,1.299883,2.872596,3.646704,3.822218,3.299146,1.877499,0.757286,-0.361484,-1.278801,-1.994657,-3.109042,-3.421949,-3.433368,-3.543291,-2.951710,-2.758617,-2.064004,-1.967863,-3.070186,-3.670967,-3.170198,-1.767871,0.236020,2.141481,3.548521,5.057144,5.667357,4.279167,1.592579,-0.792401,-1.975768,-2.657516,-2.737639,-2.316134,-2.292994,-4.068216,-5.841795,-7.213727,-7.084007,-6.252632,-5.019597,-4.084900,-2.048537,0.489496,0.629200,1.070580,2.513637,3.958374,4.404793,5.152896,5.702686,5.254162,3.607328,3.262184,4.118731,5.776971,6.336903,5.698528,6.561846,8.626857,10.593562,11.461959,12.132048,10.503829,7.577300,5.452460,6.629308,10.007841,12.788059,12.969959,10.953539,9.538796,11.225728,16.114332,21.304605,23.696543,23.490144,24.485402,27.082315,29.080879,29.081088,27.782939,27.486427,28.691546,28.298292,26.206660,23.716643,22.128236,19.341432,17.256227,18.372612,21.490583,23.310131,23.531250,21.953933,18.478172,15.303960,13.331288,11.360149,7.790535,3.922436,1.755845,1.390752,1.327149,0.665026,0.604374,1.845182,2.187443,0.831144,-1.223724,-1.777171,-2.429208,-3.679846,-6.029095,-7.276968,-6.523475,-6.268629,-8.112440,-11.554920,-12.196083,-10.135940,-8.274503,-8.011786,-8.047802,-7.082562,-5.716081,-4.148372,-3.579448,-3.209324,-4.038013,-6.165529,-7.291887,-7.617101,-7.541185,-7.064155,-5.286025,-3.006811,-2.126528,-2.545190,-0.962814,1.520584,3.804988,4.990384,6.276753,8.264081,9.052350,7.941543,6.631645,6.922638,8.614504,9.607228,8.400790,5.995175,5.390363,5.586338,5.583081,5.380575,4.378801,3.377740,2.777375,2.477688,2.778658,3.480268,4.382498,6.085330,8.888744,12.192722,12.297243,9.402288,7.107839,6.513874,6.620375,5.827321,4.634693,2.342470,-0.749368,-2.240840,-1.831968,-0.622771,0.186729,-0.103487,0.006559,0.416848,-0.472643,-2.761934,-6.051045,-8.739998,-9.428813,-8.417513,-8.006118,-9.394649,-10.183127,-9.371575,-9.260013,-11.048464,-12.736947,-12.825485,-11.914100,-11.202813,-12.691646,-15.080620,-16.369758,-15.059080,-11.448609,-7.838366,-5.928374,-4.618654,-3.409228,-1.000118,1.008655,1.617068,1.425100,1.232728,1.139932,1.446688,2.852975,4.358771,6.964055,9.968804,12.072997,13.376612,15.679627,17.482021,18.983771,20.684856,21.085254,21.584944,24.383904,28.482112,30.779547,30.076188,28.272013,27.667001,28.661131,29.554380,30.746729,32.738155,35.128638,35.718157,33.606691,30.994219,28.980720,27.566174,26.550560,25.333857,26.516045,29.997104,32.977014,32.855753,31.933303,30.809643,29.984753,29.058614,28.131206,27.702509,26.372504,25.441172,24.408494,21.174450,16.439021,11.902190,8.763936,7.124243,5.583090,3.940460,1.896336,-0.749302,-3.096471,-5.045189,-7.995472,-10.847339,-11.800807,-10.555893,-10.512613,-12.070984,-12.631023,-11.692747,-10.856171,-11.421311,-12.888183,-13.656804,-12.527188,-10.699350,-9.073307,-8.949072,-9.726661,-12.106087,-15.287366,-16.270512,-16.255538,-17.142458,-19.831286,-21.722035,-22.514717,-23.309347,-23.805937,-22.704499,-21.505045,-20.207588,-20.412139,-20.818710,-21.527313,-21.737957,-22.950655,-24.465418,-22.882254,-19.101176,-15.722192,-14.145313,-14.070548,-12.997906,-11.127397,-10.359029,-12.592810,-15.528750,-16.666856,-15.607136,-13.149598,-11.794249,-11.341096,-10.690146,-11.141405,-13.694881,-16.450578,-17.208504,-16.868663,-16.431061,-17.095702,-18.562593,-20.031737,-21.603139,-23.076803,-24.652733,-25.930931,-26.311403,-26.694150,-27.579175,-28.266482,-28.856071,-29.247946,-28.842108,-26.638559,-25.437300,-26.738332,-29.441655,-31.147271,-32.155179,-34.265379,-36.477872,-37.092656,-35.209731,-33.429097,-34.050751,-36.574692,-37.800918,-37.229428,-35.960219,-34.993289,-34.728634,-33.566253,-30.806141,-29.348295,-29.692712,-29.239388,-28.288318,-27.839497,-28.892922,-30.548588,-31.806488,-31.666619,-31.028973,-30.593546,-29.760332,-28.329324,-27.400515,-27.473899,-27.349469,-26.527218,-25.407139,-24.289224,-23.173464,-20.459853,-16.848382,-13.539042,-10.331825,-8.926723,-9.323725,-10.222823,-10.024008,-8.627270,-7.432599,-6.639985,-5.649418,-3.960888,-1.574384,0.410105,0.492589,-1.326921,-2.148413,-1.671876,-1.497299,-2.124669,-3.153976,-2.585206,0.481652,3.646610,5.309681,5.470878,5.530213,6.487699,8.643349,9.997177,9.649195,9.299417,9.447856,8.794527,9.139443,11.482618,14.724065,15.663799,15.501835,14.938186,13.872866,12.405891,10.037276,6.967033,5.595180,5.221729,3.846697,1.570098,-0.608052,-1.387739,-0.868946,0.348340,1.164136,-0.921542,-3.708681,-4.397263,-3.287273,-2.078696,-1.471515,-1.765716,-3.161282,-1.858198,2.143553,6.643987,7.243118,5.340964,3.337540,2.232863,1.026947,0.019810,-0.788533,-0.798065,-1.208771,-2.320635,-3.333640,-3.647770,-4.063010,-3.979342,-1.996752,-0.415224,1.465260,3.244714,5.123156,6.700600,8.077062,9.452560,10.427107,11.800721,14.373417,17.245211,19.316118,18.486154,16.055335,15.223677,15.791194,16.057903,16.123818,18.188955,20.153330,19.916957,18.779853,17.742031,19.003507,20.764295,21.524412,21.583871,22.142688,23.900876,25.958451,27.815427,29.871818,31.327640,31.582905,29.837628,27.091824,24.145506,21.798688,21.251384,21.303607,21.855372,20.906691,18.357579,15.708047,15.358111,15.107782,12.057073,7.405998,3.554569,0.802799,-1.349299,-1.901714,-1.054432,1.092558,3.039268,3.385712,2.431899,1.277843,-0.676446,-2.130955,-1.485673,0.659410,2.204307,3.449029,6.093585,9.037988,10.782247,11.526374,12.370378,13.414271,13.558063,13.201762,13.445381,13.488928,13.432413,12.975846,13.219236,15.062593,16.005927,14.749245,13.492558,14.935874,17.579202,19.122551,20.265929,21.909345,23.852808,25.096324,25.439904,26.183554,26.627283,28.771098,32.015007,34.559018,33.903139,31.247376,29.791736,29.936228,30.280858,30.525634,29.870561,29.715647,30.260899,30.706323,30.151925,27.997713,26.643692,26.389869,25.936249,23.982840,22.629646,23.876674,25.523930,25.571420,24.319148,23.467122,23.415345,22.263825,20.212566,18.761573,19.210852,20.760408,21.610247,21.460373,21.510791,22.361508,22.712526,21.763852,20.715490,19.767446,18.119724,13.972328,9.425264,5.778536,3.132149,0.286108,-3.059582,-5.904918,-7.949894,-9.194506,-10.738749,-14.882619,-18.226110,-18.369219,-15.711941,-14.254271,-14.396204,-14.837736,-14.178863,-12.419579,-11.259880,-11.099761,-11.839217,-12.878245,-14.016838,-15.254992,-15.992702,-15.829964,-15.666771,-16.103121,-15.639006,-13.774422,-11.809364,-10.743827,-10.277805,-9.811293,-9.544285,-9.276776,-8.108761,-6.540233,-6.871187,-8.201616,-8.231516,-7.560880,-6.189701,-5.217974,-4.045693,-2.772849,-2.199438,-1.025452,0.149115,2.124270,3.600021,4.876375,6.453339,8.430920,8.109126,6.387965,2.867444,0.747573,0.828358,1.609808,-0.108068,-4.125261,-6.641763,-6.657565,-4.372657,-2.487031,-1.600677,-1.213584,0.074256,1.662854,2.052221,1.742366,1.233301,-0.774965,-2.382419,-1.889051,-0.494848,0.700200,0.296105,-0.807119,-3.709462,-7.310910,-8.811451,-9.311071,-10.109758,-11.307497,-12.904275,-14.200079,-15.594893,-15.888704,-15.781496,-16.473255,-19.263965,-21.653611,-22.742178,-22.029648,-21.016006,-19.101236,-17.385320,-17.568241,-19.349982,-23.130525,-26.609853,-28.887946,-30.164787,-29.640356,-27.414635,-26.987604,-29.459243,-32.129533,-33.698452,-33.865981,-33.032098,-32.696782,-31.860012,-31.121765,-30.882020,-30.040754,-28.197943,-25.753566,-22.707598,-20.660015,-18.610794,-16.959910,-13.507337,-8.853052,-4.997028,-4.139240,-4.679661,-4.018264,-1.655024,-1.289912,-2.822902,-2.353965,1.116928,4.989804,6.164693,3.741624,0.420626,-1.998269,-3.115032,-3.429632,-4.042038,-5.552218,-6.660140,-5.365772,-2.069082,1.229964,3.331399,5.235258,7.441573,9.050379,9.061712,8.775607,9.092099,9.311225,8.233021,6.557523,5.184770,4.414798,4.447646,2.983351,0.321954,-2.436507,-3.691993,-4.144464,-3.793879,-3.040196,-2.783377,-4.423377,-8.060157,-11.293673,-14.623882,-16.350742,-17.474209,-18.994239,-20.510787,-21.623809,-22.833260,-23.139093,-21.441264,-18.839725,-17.834430,-18.425331,-19.012382,-18.095533,-14.974737,-11.449944,-10.921106,-12.588172,-13.751093,-11.909818,-8.064296,-5.914475,-5.160305,-5.001732,-5.238705,-5.571170,-6.899073,-8.222362,-9.340982,-11.254877,-12.163994,-10.768275,-8.867667,-8.762112,-7.551553,-4.435934,-0.315196,2.810718,4.341867,6.178309,6.820104,6.767312,6.019992,5.878206,7.542013,11.311476,15.386656,17.167616,16.354418,14.247125,11.645800,11.650508,13.661312,15.878279,16.701471,16.530956,16.366799,16.409067,16.357826,16.513144,16.475088,17.043727,17.219128,17.801362,19.090496,20.986602,22.889749,23.800007,23.017449,22.442145,22.674167,23.413587,23.960479,22.814915,19.676969,16.646715,15.724227,16.609580,14.902850,10.304111,4.813441,0.330915,-3.343389,-5.909394,-4.967022,-2.916196,-1.956836,-3.888864,-6.712199,-6.826763,-4.432475,-1.529253,-0.317018,-0.495687
1,3,0.228547,-0.415583,-1.660319,-3.705668,-6.151635,-8.098226,-9.545447,-10.193303,-10.441800,-10.690944,-11.740740,-12.291193,-12.142309,-12.594091,-13.746546,-15.299679,-18.253493,-22.707994,-27.263187,-29.319075,-27.675663,-26.332955,-26.590955,-27.249668,-26.109098,-23.569247,-23.230120,-25.491720,-28.054051,-27.017116,-23.480918,-21.445460,-21.210745,-22.776777,-25.643557,-29.611088,-32.079373,-32.248414,-30.818213,-29.388772,-28.560093,-28.832179,-28.705030,-27.378648,-25.853035,-25.028191,-26.004119,-26.280819,-24.458291,-22.036537,-20.315557,-18.095352,-14.575923,-12.557268,-11.939388,-12.622284,-12.305954,-10.790400,-7.375619,-4.361612,-1.848377,0.564085,4.175777,7.586700,10.396854,10.806242,10.614864,9.822723,9.429820,9.436158,9.841739,10.046565,9.550638,9.253961,10.756537,13.358369,14.959459,14.859811,12.659428,10.058313,8.856471,8.853904,9.550617,11.146614,13.241898,15.436474,16.530346,15.423519,13.415998,12.407786,12.598890,12.889314,11.879064,8.368144,5.756560,4.544318,1.431423,-3.282118,-7.696300,-10.711117,-12.926562,-15.642629,-18.959312,-20.476604,-20.294499,-20.712989,-23.232067,-26.651726,-27.271960,-24.592761,-22.514121,-21.636033,-21.758489,-22.381481,-22.705002,-21.129044,-18.253597,-16.478655,-17.004209,-18.430249,-19.056769,-17.983758,-16.711208,-16.139111,-15.067458,-14.396238,-15.325444,-17.355065,-18.785093,-20.915518,-24.646330,-26.377520,-25.709078,-22.740995,-18.873260,-16.005863,-15.538794,-15.472043,-14.705600,-13.139455,-11.073597,-9.508015,-8.342699,-8.877639,-10.112824,-10.348243,-8.183885,-3.719740,0.344204,1.507958,-0.128468,-1.765062,-1.801813,-0.138710,1.424258,1.987103,0.449836,-2.087531,-2.924988,-1.862522,-0.300122,1.462223,3.024525,3.486796,2.949048,3.311291,5.773539,8.835801,9.798091,8.060420,6.722800,7.285243,8.747760,9.610363,8.773065,8.435876,9.498809,11.461876,11.125089,9.288459,7.151998,5.315719,5.279632,4.343750,2.708084,-0.427353,-4.862550,-8.497494,-8.732176,-7.066582,-6.100701,-5.834521,-6.068031,-7.601218,-9.634073,-10.566582,-9.398735,-6.530519,-4.661925,-6.092939,-8.623552,-8.353751,-5.683525,-5.212864,-8.041756,-10.270190,-9.698155,-8.125641,-8.152636,-10.279129,-11.505110,-10.030568,-9.855493,-10.679874,-11.503700,-11.526962,-9.249648,-5.771750,-4.293256,-3.314156,-1.534441,-0.254102,0.726873,1.608493,3.490766,6.273704,9.057314,11.641607,13.326591,14.612276,15.698670,17.385783,19.073622,19.462198,18.151517,17.441590,17.332423,16.924026,16.316406,15.509570,15.803528,16.998287,18.793853,20.190235,19.987441,18.785476,18.584348,19.784065,21.384632,22.686057,22.888345,22.491505,22.495540,22.900459,23.006266,22.412967,22.420569,23.229076,23.638494,21.848828,18.860084,16.672266,15.285378,14.899427,15.414416,15.130349,12.647230,9.965065,7.483855,6.303606,6.524321,6.546003,5.868656,4.892281,5.516884,5.842465,3.969029,0.996576,0.225110,2.454633,3.985147,3.016653,0.149153,-2.517352,-4.082859,-4.847369,-5.110879,-3.773390,-1.034900,1.104591,2.345084,3.686578,4.729073,3.972570,3.517069,3.062568,1.809067,2.456565,5.605062,8.954555,11.905045,13.956529,15.309006,16.462474,17.016931,18.072375,19.228804,19.686216,19.744607,20.703976,22.964318,24.025632,23.387914,22.751161,23.315368,24.180534,24.346652,23.613721,23.181735,22.550691,22.620583,21.291407,18.463160,15.635835,13.609427,13.183933,13.059345,11.935659,10.912870,8.990970,7.769956,8.849820,11.930556,13.612159,13.294621,13.677936,15.662098,15.947099,14.432933,13.519593,13.307071,13.495359,13.184452,11.774340,9.765016,8.156473,6.948703,5.941696,6.035446,5.929944,4.525181,3.421149,2.917839,3.715243,2.513351,0.212155,-1.888354,-0.888186,0.912651,1.014146,-0.983710,-3.480925,-4.477510,-3.273475,-1.468830,-0.463583,-1.057746,-3.751328,-7.144340,-9.336792,-8.828694,-7.420056,-5.910890,-5.501205,-5.491012,-5.080323,-4.969147,-6.457495,-8.745379,-10.432810,-8.819798,-4.106354,-0.092490,1.221783,-0.063546,-2.048488,-3.433055,-4.217258,-5.201109,-5.484619,-5.967799,-5.850662,-6.033218,-6.215479,-5.097458,-3.479165,-2.160613,-3.241813,-4.422777,-6.203517,-8.784044,-11.164371,-11.544510,-10.924472,-9.504269,-7.883913,-7.163416,-7.142790,-7.622048,-7.301200,-6.080259,-5.659238,-5.638147,-6.116999,-5.395806,-4.574579,-3.753332,-3.132075,-3.410821,-3.989582,-4.268369,-5.747195,-7.826071,-10.305009,-10.484021,-9.563120,-8.742316,-9.621622,-11.401049,-13.380610,-14.160315,-14.740177,-15.120207,-16.100417,-16.180819,-16.361423,-17.042242,-17.223287,-16.804569,-17.486101,-18.667892,-17.549956,-14.932302,-13.614942,-14.597887,-16.581149,-17.964739,-17.748667,-15.432944,-11.717582,-10.402592,-10.787983,-11.573768,-10.559956,-8.846558,-9.233586,-11.921048,-15.208957,-17.397322,-19.486154,-21.975462,-23.565258,-24.355551,-24.546351,-23.937669,-22.929514,-21.621896,-18.414825,-15.208311,-14.602363,-16.396991,-16.792205,-15.188013,-12.484426,-10.581452,-9.779101,-8.977381,-6.276303,-3.575874,-3.676104,-4.077002,-2.178576,0.319166,0.116213,-2.187441,-2.891805,-2.196888,-0.802698,-0.409243,-0.516531,-0.824570,-1.333368,-3.342933,-5.553272,-6.364393,-6.076304,-4.389012,-1.202524,2.283152,5.068009,5.952040,6.135239,7.217597,8.999109,9.679767,9.459565,9.538496,11.916554,15.593733,18.470026,19.945427,20.319930,20.193529,19.366218,17.537991,15.208843,13.378767,11.847759,9.615812,6.482923,3.449084,1.014291,0.178540,-0.058176,-1.395860,-4.334518,-7.774154,-9.614774,-8.756380,-6.098979,-4.642574,-4.987169,-6.232769,-6.579377,-5.226998,-3.975636,-5.725293,-7.575975,-7.327683,-6.880423,-8.434196,-11.389008,-14.444860,-15.301755,-13.459698,-11.218690,-11.278735,-11.439835,-10.101992,-8.565211,-8.529492,-8.894838,-7.261251,-4.428734,-1.997289,0.733082,3.762379,7.290598,8.817737,7.843797,6.368774,6.792668,8.415477,10.937200,13.757836,15.677384,16.195843,14.913211,14.129489,13.844675,15.058770,16.671772,17.983681,18.294497,18.704219,19.612848,20.220383,21.526824,24.332173,26.136428,25.839590,25.041660,27.142638,30.142524,32.441320,32.339027,31.835644,31.931173,31.225615,30.918972,29.911243,26.802432,22.992539,20.381565,17.969512,14.856382,12.442177,11.626899,11.610548,9.693129,6.674641,3.855089,1.934473,-0.087203,-2.009937,-3.033726,-2.558569,-2.684462,-3.311402,-4.739387,-6.068413,-6.798478,-6.429578,-4.961709,-3.794870,-4.729056,-6.664263,-8.100489,-9.637729,-11.175980,-11.515237,-9.855498,-7.296757,-5.639011,-5.482256,-5.526487,-6.171700,-6.817890,-6.965054,-5.713185,-3.462281,-0.912335,0.736657,1.384699,2.331798,2.777957,3.323183,3.067480,3.310854,4.053310,4.294854,2.935492,1.075228,0.914069,2.552021,4.689089,5.725280,6.560599,5.795053,4.828647,3.961389,3.793284,4.724339,5.654560,6.783955,7.712529,8.440289,7.667243,7.393396,7.218756,7.843331,8.767126,7.590149,5.512408,4.833909,4.854660,3.874669,1.293942,-2.187512,-4.969686,-6.152573,-7.536164,-9.620452,-11.905430,-13.591088,-16.177420,-18.264416,-20.352070,-22.540373,-25.129317,-26.518893,-26.009094,-24.999910,-26.491335,-30.883358,-35.775972,-36.769168,-34.562937,-32.457272,-33.852163,-35.947601,-36.443578,-33.540085,-30.337114,-28.934654,-29.732698,-30.431237,-29.930261,-29.529762,-30.329730,-31.730157,-32.431034,-32.432350,-33.334098,-36.636267,-41.238850,-45.641836,-47.445217,-47.348983,-46.453124,-44.957633,-41.762499,-37.967713,-35.873266,-34.579148,-32.585351,-29.891865,-26.798681,-23.305789,-19.913180,-15.820844,-12.828774,-9.436958,-6.245389,-4.154056,-4.162950,-4.672063,-4.181385,-0.890907,3.099381,4.589487,3.679421,0.869192,-1.441192,-2.351721,-1.162386,-0.773178,-1.584088,-2.495108,-1.806228,-0.017439,0.771266,-0.640103,-2.651537,-3.863028,-3.174567,-1.686147,0.502243,2.790610,4.078962,3.167308,2.055656,2.044014,2.532390,3.120793,3.709230,4.097709,2.786238,1.274824,1.563476,3.752201,6.041006,6.029899,5.518887,4.507977,5.797177,7.286493,9.275933,9.665503,8.855210,7.845061,6.935063,6.625221,5.815542,4.306033,4.696700,7.287548,9.978584,10.569814,9.761242,8.752876,9.044720,10.736780,11.629060,12.021567,12.614305,13.507280,15.100495,17.593955,19.487666,19.981631,18.875856,17.970343,16.565097,15.560122,13.955422,13.651001,15.846861,19.743006,22.539440,22.436166,22.233186,23.830504,26.028122,27.026043,26.724268,25.822802,24.621645,23.720799,25.020267,27.220051,27.620151,27.220570,27.421308,27.722367,28.523748,29.325451,30.627478,32.729830,34.432505,33.835506,30.738831,28.142482,27.046458,27.850758,27.955383,27.360331,27.065603,28.571197,28.877113,27.183348,26.189903,26.896776,28.803965,29.211468,27.919285,27.227412,27.135848,27.744591,28.153638,27.362987,26.572636,25.382581,23.392820,21.303350,19.714167,19.525269,21.236653,22.048313,20.960249,18.072454,14.284926,12.897661,13.010654,12.823901,11.637399,9.651142,7.865126,6.279346,4.793799,2.808478,2.723379,2.938496,1.853826,0.369361,0.385098,1.201030,2.517151,3.033457,3.349942,3.166599,3.683423,4.500408,4.717547,4.134834,4.852264,5.569829,6.387524,8.005341,10.623275,13.241319,12.659465,10.177707,7.496039,5.914453,7.132943,8.051501,8.970121,9.688795,12.707515,16.926276,18.445069,17.363888,17.582724,18.101571,17.120422,15.639268,14.358102,13.976916,14.595704,15.314457,15.233169,14.351830,11.570435,8.888974,7.307441,6.325828,4.744127,2.562330,2.980430,3.898419,3.316290,3.434034,2.951645,2.769114,2.786433,1.603597,-0.179405,-0.362578,-1.045931,-2.529470,-5.013204,-7.697140,-8.981286,-8.965648,-9.150234,-11.135052,-14.420108,-18.505411,-21.090966,-20.676782,-19.062865,-17.849223,-18.035861,-17.622788,-17.710010,-20.297534,-23.985366,-26.473514,-27.361983,-26.550780,-25.539912,-25.529385,-26.619205,-26.809379,-25.699912,-23.690811,-23.582081,-25.073728,-27.365759,-28.758178,-29.050991,-28.144203,-26.137821,-24.531849,-24.326292,-25.821156,-27.416445,-27.812164,-27.008318,-24.804911,-22.201949,-20.399434,-19.497372,-18.395766,-16.594621,-15.593941,-15.493729,-14.393988,-12.894723,-11.995937,-9.897632,-6.299813,-2.102481,1.894360,5.990707,9.786558,12.081910,13.376762,14.071111,13.764954,12.758291,11.751120,10.743438,9.935245,8.926538,7.817318,6.307583,4.197333,2.886566,3.075281,2.463480,0.651161,0.038324,0.224969,0.211098,-1.403291,-4.118196,-7.133617,-8.149553,-8.066003,-7.182965,-5.900439,-4.218423,-1.136915,1.444087,1.824584,1.804578,1.884073,0.763070,-0.658428,-2.380419,-5.802898,-10.425864,-12.849314,-12.773243,-13.597648,-17.522525,-21.747871,-23.773682,-21.899953,-18.726680,-18.153859,-20.381485,-22.609552,-22.738057,-22.466994,-22.296358,-23.426142,-25.356343,-28.486954,-32.417969,-33.449382,-32.181186,-32.113377,-33.245947,-32.378889,-31.812197,-31.745863,-32.579882,-32.114245,-31.448946,-30.983976,-31.819328,-32.354995,-32.890968,-34.127240,-34.863803,-34.200647,-33.337765,-32.675148,-30.912788,-28.550675,-27.488801,-27.127157,-26.665733,-23.804521,-19.443510,-15.682692,-14.322057,-14.661594,-15.301295,-13.941149,-10.581146,-6.521277,-4.461530,-4.701895,-5.442362,-5.082921,-3.323561,-1.964271,-0.305040,0.154143,1.813288,4.272407,6.031511,6.290611,6.149718,8.208844,10.268000,9.927198,8.186449,6.645765,5.605157,4.164637,4.124218,6.583910,9.543726,10.903678,11.963778,12.824037,12.884469,11.245084,8.505895,6.566914,4.728154,2.389626,0.851343,0.113317,-1.424439,-3.161914,-6.099095,-9.735970,-13.872526,-16.308751,-16.944633,-15.780159,-13.115318,-10.050097,-8.484483,-8.518464,-8.452029,-6.685164,-4.617858,-3.950098,-4.681873,-8.613170,-12.243976,-12.674281,-11.504072,-10.433336,-11.262063,-13.690240,-15.417855,-14.444896,-11.171353,-7.497212,-5.822463,-5.547094,-5.471094,-5.394451,-3.917153,-1.739190,-0.160550,-0.081223,0.198804,1.879539,4.560996,6.743183,7.926113,9.709795,12.294240,14.579458,16.565459,17.852255,18.239853,17.628266,17.917501,19.107570,20.198481,19.990244,18.182869,18.576364,19.670738,18.566001,17.562161,18.959226,22.257206,24.456109,26.155943,28.856715,31.558435,31.661109,30.464745,30.569351,32.574934,34.181501,34.489059,33.197615,32.007175,32.517747,35.029336,37.741948,39.955590,38.570267,34.785985,32.202749,31.520565,30.839437,28.659371,25.880371,24.102441,24.025587,23.849812,21.375120,17.301514,13.028999,10.657578,10.087254,10.418030,10.449909,10.882892,11.616984,11.752185,9.588498,5.425924,2.464466,1.104123,0.844899,1.086792,1.029805,2.473937,3.419190,3.665562,3.113054,4.361666,6.311396,6.562245,4.414211,1.367293,-0.978511,-3.423202,-4.366782,-4.709254,-4.850619,-1.790879,2.469961,5.931899,7.794933,9.959058,10.624271,12.190568,15.057945,17.126398,16.695922,16.566512,18.338163,20.310871,19.984629,18.859432,17.635274,16.612150,16.090052,16.168974,17.048909,18.229851,18.911791,18.994724,18.578640,18.363532,18.949392,19.036212,19.523983,20.312696,21.202342,21.292911,18.784396,15.076785,12.170069,11.764238,13.659281,15.355188,15.851948,14.749550,11.647983,9.347236,7.947296,8.048153,7.349793,6.052205,4.855376,5.559293,6.163944,5.569315,3.875393,1.782165,-0.010384,-2.702266,-5.593498,-6.584092,-6.474063,-7.263427,-9.152198,-12.240391,-15.028023,-15.315107,-14.601661,-13.987699,-13.673239,-13.958297,-15.642889,-17.327033,-18.810744,-22.594041,-26.776940,-28.159459,-26.441616,-26.523429,-29.204916,-32.386096,-34.066986,-33.847605,-32.727973,-30.808108,-29.188029,-28.267757,-28.447310,-28.226708,-26.105972,-23.285121,-22.064175,-21.343156,-20.022084,-17.100979,-13.679863,-9.058756,-4.237681,-1.816658,-1.795710,-1.774857,-1.954123,-1.633529,-0.913097,1.907149,5.327188,6.546996,4.866550,3.485828,4.004806,5.523460,4.841768,3.159704,3.277246,4.494369,6.011049,7.127262,7.042983,7.858188,8.772851,9.286948,9.100453,9.213342,10.425588,11.137167,9.748053,8.558220,7.967642,8.276292,9.984145,10.891174,11.397354,9.802656,7.507054,6.010522,5.713032,5.414558,5.715071,7.214545,8.612952,7.410264,3.306453,-0.398508,-2.904648,-4.111995,-4.320576,-4.330422,-4.541559,-3.354017,-0.467824,2.116990,1.500397,-2.017633,-4.537129,-4.458119,-3.780635,-4.904705,-9.030358,-13.157626,-15.486537,-14.917122,-14.249411,-15.483433,-17.919221,-19.556803,-19.796211,-20.237474,-21.480625,-23.125694,-25.172711,-26.721709,-27.172717,-25.425767,-22.380892,-20.038121,-17.497488,-14.159022,-11.222757,-9.788724,-9.756955,-8.827482,-5.700337,-2.875553,-2.253161,-1.733195,-1.815686,-1.000668,0.811827,2.921767,5.029117,6.133847,6.135921,5.735308,5.831973,6.325884,6.817008,7.005310,7.490757,9.173316,9.952953,8.229633,6.703324,5.773991,4.541599,3.306116,3.367507,3.825736,1.480771,-0.367424,-0.418883,1.326359,2.568268,3.006809,2.841947,2.573647,3.401873,5.126592,6.747767,7.465364,5.879347,3.389681,-0.103670,-2.600741,-4.801569,-5.506187,-5.614633,-6.826943,-6.843151,-6.763295,-9.187409,-12.215531,-13.047697,-11.383942,-10.124304,-11.968818,-16.217521,-19.070450,-18.227641,-16.589132,-14.754958,-13.725156,-12.699765,-12.178820,-11.362358,-12.150418,-13.543035,-13.040248,-11.342093,-10.048608,-10.059831,-10.575799,-9.596550,-7.522121,-5.552551,-4.887876,-6.128135,-6.973367,-5.623608,-2.678897,-0.339272,0.995228,3.324565,6.048701,7.767597,7.181216,6.989517,9.092463,11.590015,13.282134,13.868781,15.249918,18.225504,20.695502,21.459872,19.818574,16.171570,13.118820,11.160285,10.195926,10.725702,11.149574,10.867502,10.679447,9.985369,8.985228,7.878983,6.566596,5.248025,5.123231,5.292174,5.554812
1,3,-10.851687,-11.982468,-15.012874,-16.442911,-16.372582,-15.701893,-15.630846,-16.559447,-17.487700,-18.515611,-20.343184,-22.770423,-25.097334,-25.923921,-26.250191,-25.676148,-23.701797,-21.227144,-19.752194,-19.076954,-19.101428,-19.825622,-20.349543,-20.073196,-20.196587,-21.019723,-20.742610,-20.565253,-20.187660,-19.709837,-19.331790,-19.353527,-17.475053,-15.296377,-15.617505,-17.838443,-18.759200,-17.879782,-15.400196,-13.720451,-11.540554,-8.660512,-6.080334,-3.800026,-2.519598,-1.039056,1.441591,4.522334,6.803166,8.084078,9.065061,10.746108,13.527208,14.808354,14.489536,13.970746,15.451975,19.233213,22.814451,24.395679,24.576889,24.658071,26.739215,29.820311,33.301350,35.982322,38.363216,39.044023,39.024732,38.305334,34.985817,31.466172,30.046387,31.326453,32.006358,31.686091,30.265643,28.945001,27.024155,24.203094,21.081806,19.560280,19.338505,18.316469,17.294161,16.771569,17.048681,18.025486,17.901972,15.178127,12.553938,11.829394,11.804483,11.279192,11.453509,11.527422,10.100919,8.273986,8.046612,9.718783,11.290487,12.061712,11.632444,10.102671,7.472379,6.441557,6.310190,9.078266,13.645771,17.212693,18.679018,19.044733,18.809825,17.874281,16.838086,16.701228,16.063693,15.225467,14.886538,13.346891,11.906514,12.265391,12.623511,12.080858,11.337420,10.793183,10.148132,9.302255,9.655538,10.907966,9.759526,9.010205,9.859988,12.408861,15.556812,18.003825,19.149888,17.794987,14.939107,12.082235,8.924358,7.065460,8.905530,13.544553,15.682515,14.919403,13.955203,12.989902,10.723485,9.255940,8.387253,6.817410,4.646399,4.574204,5.500814,4.626215,4.350394,3.573336,2.495031,1.715463,1.134621,0.252490,0.169059,0.584315,0.998244,-0.389166,-2.077928,-1.668054,0.240443,2.447551,3.253257,2.057549,-0.539584,-3.138156,-2.538177,0.060339,3.157382,4.552940,5.147000,5.339552,5.130584,3.320085,0.608044,-1.805550,-2.420709,-2.337443,-3.555763,-4.475679,-4.197202,-3.720342,-4.445110,-5.571515,-6.499567,-6.629277,-7.460654,-9.893706,-14.128445,-16.964879,-18.203017,-19.942868,-22.584441,-24.127744,-23.972786,-22.419576,-20.368121,-17.718430,-16.370511,-16.424370,-15.680016,-13.037457,-10.996698,-10.557748,-10.120613,-8.885299,-7.151814,-6.120164,-6.290354,-6.362391,-5.936281,-4.512029,-4.489640,-5.569120,-6.150474,-6.833707,-7.818823,-9.405826,-10.094722,-10.385514,-10.778206,-12.372801,-13.069304,-11.967717,-10.268044,-8.270286,-7.574448,-8.280532,-9.488539,-10.498472,-11.610332,-11.724122,-11.139843,-10.257495,-9.777080,-10.598599,-12.122052,-13.347440,-14.274762,-14.804019,-14.035210,-12.068335,-10.603393,-10.940383,-13.379304,-15.120155,-16.562934,-18.307639,-20.154268,-21.002819,-22.153289,-23.905675,-25.659976,-26.316187,-24.274305,-20.534327,-17.596248,-17.260065,-17.225774,-15.993370,-15.362848,-15.234203,-15.407430,-16.182525,-17.159480,-17.638292,-17.218952,-16.701456,-17.585796,-19.271967,-21.659960,-23.549770,-24.741388,-24.034808,-23.130021,-23.227019,-22.225795,-20.426339,-19.028644,-18.932700,-19.538498,-17.946029,-15.355284,-12.166253,-10.378926,-10.293294,-10.409344,-9.227068,-7.246455,-4.067493,-0.490172,3.085520,4.559594,3.632062,2.402935,1.972227,1.639948,0.006112,-1.529269,-2.166182,-2.904614,-3.344551,-3.185982,-2.228891,-0.073265,3.380909,5.433647,3.984961,1.634867,2.783379,5.830512,7.076281,5.520700,3.663786,3.205554,2.446019,0.385196,-0.976897,-0.440245,1.095167,2.929357,4.162341,4.294136,1.724758,-1.245776,-4.117448,-6.190242,-7.164139,-7.439124,-6.315177,-5.392282,-6.470420,-8.549574,-10.429725,-11.010856,-10.492947,-9.575981,-9.259939,-8.644802,-7.830551,-6.517169,-6.204635,-5.792930,-4.582036,-3.971934,-5.362603,-7.954025,-9.146179,-8.839048,-7.432610,-7.026845,-7.521735,-7.817260,-6.913398,-6.710131,-9.107438,-11.205299,-11.703693,-13.402602,-16.802003,-19.801877,-20.002204,-18.102962,-14.404132,-11.505692,-9.607623,-8.609903,-7.412512,-7.515429,-6.118634,-3.522106,-0.325823,2.270234,3.566087,5.261756,7.857263,10.252627,10.847871,9.543014,7.238078,5.633083,6.228051,7.223002,8.017956,7.812935,7.607960,7.803050,8.498228,11.393513,14.788927,17.884489,19.980222,22.176144,25.272277,27.768641,27.665257,24.262145,20.759326,17.956819,19.754645,23.452824,24.951377,24.450323,23.549683,23.449476,23.349723,24.350442,24.051655,22.553380,20.255637,17.358445,14.261825,13.565795,13.970374,13.275583,11.481439,9.387962,6.895170,2.803083,-0.988281,-2.778903,-1.768765,-0.757849,-1.446136,-3.133608,-3.620248,-3.206036,-2.590956,-2.074990,-1.858121,-1.340330,-1.621601,-1.401916,-2.581259,-4.859612,-6.736959,-8.513284,-10.588569,-12.362798,-12.035956,-9.708026,-7.078992,-7.148839,-7.817550,-9.185111,-9.851506,-10.016720,-10.480739,-9.543546,-7.605128,-4.865470,-3.124557,-2.282376,-0.438913,2.005847,4.851917,6.799311,8.548041,9.198122,9.549565,11.102385,12.656593,13.312202,14.769224,17.027671,18.687556,18.548890,17.911684,17.575950,17.741700,17.908943,16.677691,14.647955,14.219744,15.193070,14.867942,11.844370,8.322363,6.701932,7.383084,9.265831,11.150179,13.736138,16.623717,18.512923,19.203765,20.596251,21.090387,19.786182,17.283644,15.082778,13.283592,12.186092,9.590285,6.496177,3.103775,0.413083,-2.175892,-4.863146,-7.048672,-8.132466,-9.014523,-7.894839,-4.973408,-0.850228,1.774706,3.801398,5.129852,5.160070,4.092056,3.025812,2.461342,1.598647,1.437731,2.478596,3.221242,2.865672,1.111888,-1.040110,-2.190320,-3.538742,-6.285374,-9.230217,-10.873270,-11.614533,-11.654006,-12.491690,-14.127585,-16.261691,-17.894011,-18.524545,-17.553294,-15.080260,-11.305444,-8.828850,-8.750478,-9.170331,-8.488412,-5.004723,0.080732,4.967951,7.556930,10.047665,13.340154,15.834392,17.230375,16.228099,15.127559,14.528751,13.831670,12.736311,12.342668,11.250737,10.160513,10.371988,12.585158,15.100016,17.116556,17.934772,18.554657,17.776205,16.099408,14.024259,12.650752,11.378878,10.608631,9.140003,7.572985,6.707569,7.643748,8.881514,10.020857,10.961769,11.304241,11.048265,10.593831,9.240930,8.889552,10.139689,10.791330,8.544466,5.199087,2.855183,3.012743,4.671758,5.632217,5.094110,4.257425,5.122152,7.388280,8.755799,8.824697,8.994962,8.666584,7.939551,6.213851,4.689474,2.366406,-0.655363,-2.575846,-2.495055,-1.213001,-0.529697,0.354844,0.240611,-1.772409,-3.984229,-2.694861,1.295682,5.387388,8.580243,11.074234,12.169350,11.165576,10.962901,12.661309,14.960789,15.961328,15.862911,14.965527,13.369160,14.673799,16.779429,17.886037,16.993609,15.602133,15.411595,17.721980,20.633276,20.145469,16.158545,11.672490,9.387291,8.702935,9.519407,10.336695,11.654783,13.173660,15.693310,17.513721,17.034879,14.256770,12.179380,10.602697,10.126706,10.251394,9.576748,9.202754,7.729398,7.256668,6.284549,4.313030,2.342095,1.071733,0.701930,0.232673,1.263948,2.895744,2.628046,0.060843,-2.305879,-1.672133,0.662070,0.196715,-3.668208,-8.532713,-11.496812,-12.460518,-13.323841,-13.986795,-14.049391,-14.111642,-13.973559,-14.635153,-16.396437,-18.757422,-20.918119,-21.678539,-20.138694,-18.098595,-17.758252,-18.417676,-19.376879,-21.135871,-22.294661,-22.753261,-22.911680,-23.969929,-25.328017,-25.185955,-24.543751,-22.701416,-21.358958,-20.316387,-19.373713,-18.030943,-15.588087,-12.845153,-11.202149,-10.459085,-10.915967,-10.572805,-9.429605,-7.486376,-5.543125,-3.599860,-1.856586,0.486688,2.629955,4.473210,6.616445,8.059655,7.802833,5.445974,3.089071,1.732119,0.375112,-0.281954,-1.739084,-3.996284,-4.553558,-3.710911,-3.068346,-2.825869,-2.683482,-2.541189,-2.398995,-3.156902,-5.414913,-7.973032,-8.731261,-7.189602,-5.348059,-4.506632,-5.265325,-7.224138,-8.283074,-9.242133,-11.101317,-13.360627,-14.720064,-16.079627,-16.839318,-15.899136,-14.059082,-13.519155,-13.179355,-13.339681,-16.500132,-19.560707,-21.421405,-24.082224,-28.243163,-32.204219,-32.565392,-30.726677,-30.688074,-31.549579,-30.911189,-27.172902,-24.834714,-25.896621,-28.558620,-29.420707,-26.982877,-24.645128,-23.907453,-24.169849,-23.732311,-22.494833,-22.457411,-23.320038,-22.982710,-21.745420,-21.208163,-20.970932,-20.233721,-18.896523,-18.259332,-18.422141,-18.384943,-18.447729,-17.810494,-15.873229,-13.935927,-13.598579,-13.661177,-11.923714,-7.586180,-2.048567,1.389134,0.826932,-0.335164,1.102856,4.741000,6.679279,6.617702,5.056279,4.495020,5.733936,7.073037,8.712333,9.051835,9.091554,8.531501,8.371686,7.612122,7.152819,7.693790,9.435044,9.976595,8.618455,6.560634,4.503145,2.046001,0.689214,2.632796,6.476760,8.921118,8.165884,5.311069,3.856688,3.802752,4.049276,3.896272,3.643755,2.891736,0.540230,-0.810749,-1.361188,-1.411074,-2.560392,-4.109128,-6.157269,-7.104800,-7.251708,-6.397978,-4.843596,-2.988548,-1.832819,-0.276395,0.380738,0.738595,0.797190,1.056538,2.116654,2.777551,3.439246,3.901751,3.265082,1.329255,-1.605718,-4.139820,-6.573038,-8.305356,-9.136759,-10.467233,-13.296763,-16.325335,-17.552933,-17.979543,-19.305150,-21.529739,-22.053296,-20.475806,-19.097255,-18.317627,-17.636908,-16.555083,-14.872139,-12.888060,-10.702832,-7.316441,-5.028873,-3.540112,-2.150145,1.241043,5.833464,9.227135,10.522068,10.518278,9.715778,7.814582,5.714704,4.116157,4.518955,4.823112,5.928641,6.535554,7.343866,8.453589,10.364737,13.177321,16.191355,18.006852,18.123823,16.642282,13.962241,11.083711,8.706705,8.031235,9.557312,11.584949,11.514156,10.544945,8.277327,5.911314,1.846916,-2.115857,-4.476993,-4.736482,-4.894313,-5.850477,-9.004964,-11.757763,-12.808866,-11.058263,-10.605943,-12.551899,-14.296122,-14.238602,-13.579331,-13.018301,-12.655503,-12.590930,-11.524574,-8.156427,-3.286482,-0.514731,-1.741168,-5.065785,-7.988577,-9.709536,-10.228658,-10.245935,-8.761362,-7.074933,-4.886644,-3.596489,-3.004463,-2.510562,-1.714782,-0.917118,-1.117566,-1.016122,-0.112784,3.492452,8.099588,11.508629,13.219576,15.032431,17.147196,20.063873,24.382464,27.802970,28.825391,28.349729,28.075984,28.504155,29.534244,30.466250,32.600172,35.036009,36.573760,37.313425,37.255000,36.898485,36.843878,37.691175,38.740374,38.791472,37.444466,34.299353,30.656128,27.614788,26.375328,25.337743,23.302030,22.568182,22.136194,21.206061,22.277776,24.351334,25.426727,23.903949,20.782993,17.163852,13.146517,9.330982,6.817237,6.105275,8.195086,10.386662,10.079993,7.675070,6.071882,5.570421,5.570675,5.172633,4.376286,4.081621,4.488627,2.897292,0.407605,-2.080447,-2.866877,-2.351697,-2.034921,-2.116562,-2.296633,-2.875148,-4.352122,-5.027569,-4.301504,-3.573941,-3.444896,-3.714384,-2.582422,-1.449025,0.285792,1.522010,2.759614,3.098586,2.038910,0.080567,-1.576460,-0.732189,1.813362,3.960175,5.908229,8.157508,10.507991,11.059659,11.012492,12.266471,12.821575,12.377784,13.035078,16.093435,19.452835,20.913257,20.974678,20.037078,19.900434,20.964725,21.729927,21.096020,19.962979,20.430782,20.499406,19.168828,16.339024,13.309970,11.681643,12.054018,13.127072,13.400779,13.775116,14.250057,12.425578,8.301653,4.178258,3.455366,4.232953,3.410991,1.689457,-0.131678,-0.552438,-0.272850,1.207058,4.687262,7.067733,7.048445,4.729371,3.010484,1.991756,0.373160,-1.045332,-2.463746,-3.782113,-5.300458,-5.718810,-5.337197,-5.155647,-5.274189,-5.192852,-6.211662,-8.430650,-11.749843,-12.669271,-10.988962,-8.208945,-6.229250,-4.349904,-2.070938,0.707620,2.685740,1.863394,-1.259449,-4.382817,-5.206740,-4.331248,-2.556369,-2.182134,-2.608571,-3.035711,-3.463583,-4.692216,-6.521641,-7.551886,-8.482982,-7.714958,-6.947844,-6.581669,-7.316464,-7.252256,-6.689077,-5.126956,-3.165923,-1.906006,-0.347235,1.510359,1.066748,0.221902,0.475792,1.328389,1.979663,3.529584,6.178125,8.825255,10.870946,11.515169,10.557895,7.899094,5.138739,3.176800,1.613249,1.148058,0.981197,-0.487361,-2.757644,-4.129681,-5.303499,-6.779127,-9.556593,-13.535924,-16.917147,-18.200290,-16.385380,-13.872446,-14.661512,-16.752607,-17.445758,-17.240990,-17.838331,-19.437806,-22.139443,-24.543266,-27.749302,-29.857577,-29.568116,-28.580944,-29.196087,-31.113569,-31.633416,-29.555653,-26.980303,-26.107391,-28.736941,-33.068977,-35.403522,-33.240601,-29.280237,-26.122452,-23.967269,-22.214712,-19.864803,-17.117563,-15.573016,-15.631182,-16.792084,-17.955742,-18.522178,-18.891413,-18.963467,-17.438361,-15.316115,-14.196748,-15.880281,-18.866733,-20.556123,-21.348470,-20.643793,-18.642109,-18.043438,-17.647796,-16.955202,-15.565673,-14.379225,-13.495876,-12.115642,-8.938539,-5.064583,-2.393790,-1.226174,1.338248,5.399463,9.057456,11.312212,13.363719,15.411962,16.356929,15.898606,14.836980,14.172041,14.303775,14.532171,14.257218,14.178905,14.297221,14.512156,15.123700,15.831844,16.636577,17.837892,19.735779,20.630230,20.221238,19.708795,19.892893,19.673525,20.750686,22.424370,24.294569,25.061279,23.624495,19.884213,16.240427,14.093134,13.042331,12.288014,12.330180,13.168827,14.703954,14.335557,12.263637,10.588192,10.109222,9.426727,9.440706,10.051162,9.958094,7.261505,2.661396,-1.342231,-4.049371,-6.260023,-6.674183,-4.791846,-2.813009,-1.137666,1.134188,3.602559,5.567452,4.528874,1.886833,-0.258664,-0.507610,0.840005,2.284188,2.924948,2.862297,1.796243,0.626798,-0.346029,-3.122224,-6.601777,-9.084675,-8.170905,-6.760454,-6.553308,-7.849453,-8.148874,-7.851556,-7.757483,-6.366640,-4.479009,-2.294573,-0.413316,0.364781,0.139738,1.111571,3.480302,6.145950,7.908536,8.968080,8.424604,8.378131,8.428682,8.576280,9.520950,11.062714,13.001599,14.037627,13.970826,13.201221,12.828838,13.353705,14.975850,16.595299,17.612083,18.026230,19.037770,20.846734,21.453151,20.757053,18.958472,14.757440,10.453990,8.348156,6.239972,2.729471,-2.183310,-6.998337,-10.615573,-11.734982,-12.056526,-13.780168,-16.005869,-17.333590,-17.963292,-19.194935,-20.828478,-22.363881,-23.301101,-24.340097,-25.880825,-26.923243,-27.567305,-27.712969,-27.160188,-25.408917,-23.859110,-24.010720,-24.763699,-24.718000,-23.373575,-22.030373,-21.188346,-21.247443,-22.107614,-22.468806,-22.530968,-20.894048,-19.457992,-19.922746,-21.988256,-23.354467,-23.421323,-21.688769,-19.156748,-16.525202,-14.494073,-12.163304,-10.132834,-9.602604,-9.872554,-9.742623,-8.812750,-5.882871,-1.652926,0.977151,0.407421,-0.462049,0.568806,2.200050,5.431750,7.863974,7.896788,5.930262,3.664463,4.099461,7.535326,10.772129,11.509940,11.448832,11.488878,12.130149,13.772721,15.916666,17.762061,18.508980,17.457499,16.407696,16.159648,15.713433,16.069129,16.826815,17.686572,19.548480,20.412619,19.179073,17.547922,16.219250,13.993141,11.169679,8.148948,7.531034,9.416024,12.104003,12.995059,12.689280,10.986755,9.087573,6.491823,3.499597,2.210985,1.126079,0.844971,0.267755,-0.305477,-0.274630,-1.339608,-4.500317,-8.156660,-9.308541,-8.955862,-8.198525,-8.436432,-9.469483,-10.497578,-11.820617,-13.038498,-14.851120,-15.558381,-15.560176,-14.456403,-13.346957,-12.831733,-12.410626,-13.883528,-16.350334,-17.710936,-18.265225,-19.213092,-19.554429,-18.289126,-16.717070,-15.638152,-14.752259,-12.959278,-10.359097,-8.751601,-9.436675,-9.714206,-6.884076,-3.246169,-0.600368,0.853444,2.315386,4.485577,5.664136,5.051184,3.546842,3.351231,3.364474,3.386693,5.318011,7.458554,8.008445,6.567810,6.436776,8.015468,10.004013,10.902541,10.811180,11.530058,12.859305,15.499053,18.249432,19.310574,18.982611,18.665676,18.459904,18.165428,17.882383,16.510905,14.851130,13.003196,10.767238,8.643397,8.231810
1,3,16.199368,16.414752,17.331536,19.549718,24.369299,30.690275,35.612647,35.136411,31.861566,30.388110,31.116041,32.745357,34.576054,36.608129,37.041581,35.276406,31.712600,29.050160,28.289083,27.829364,27.371000,28.413987,30.558319,31.403993,29.251003,24.399346,21.749015,22.000005,23.652312,24.005930,21.860852,18.517073,15.774586,15.533386,15.393466,13.454818,9.517438,6.181316,4.546447,4.112822,3.780435,2.649277,-1.380659,-4.709381,-4.536899,-2.763219,-2.088350,-3.912303,-5.935084,-6.056703,-4.677171,-2.396495,-1.014685,-2.131752,-3.447705,-4.162554,-5.676309,-7.588982,-8.800581,-8.911119,-6.920605,-4.629052,-4.136469,-4.342869,-3.748263,-1.752662,1.243921,2.741475,2.039988,1.839448,3.339841,6.441156,10.143381,13.446501,16.750504,20.055378,22.861109,24.967683,25.675088,25.383309,26.092333,27.702146,28.512733,28.824082,28.536177,27.549005,26.162550,25.476798,26.191735,26.907346,26.923615,26.440528,26.558069,27.176224,26.894976,26.414311,25.734212,25.754665,27.475653,29.597161,30.219172,28.641670,26.664640,24.888066,24.111930,23.736216,22.160909,20.685991,18.411445,15.137256,10.963407,7.589880,6.016658,5.443726,3.771065,-0.001341,-4.973510,-9.545459,-11.817204,-12.888763,-13.860155,-16.331395,-17.202501,-15.273491,-14.344383,-15.715193,-18.385940,-20.456641,-19.627314,-16.997976,-15.668645,-17.539338,-22.410074,-26.380871,-27.651745,-27.522715,-27.993799,-29.565013,-29.436377,-27.207908,-25.679624,-24.851542,-23.923680,-23.496056,-23.468688,-23.941594,-24.314791,-24.088297,-23.462130,-22.736307,-21.510846,-19.485766,-17.661083,-16.736815,-16.012979,-15.089594,-12.966676,-9.244244,-4.322314,0.299096,4.819969,6.340287,5.160033,5.579191,9.597742,13.515669,14.132957,12.549587,10.865543,9.980808,7.895365,5.109197,2.622288,0.934621,-0.453820,-0.943052,-1.333092,-1.723954,-0.315657,1.391784,2.098354,1.204035,1.908813,3.012671,2.115594,0.217565,-2.281429,-4.781406,-6.682380,-7.284367,-6.987382,-5.791439,-5.496554,-7.002741,-10.610016,-13.818393,-14.927886,-15.338510,-17.150279,-19.963208,-22.977310,-24.792600,-25.609091,-24.826797,-24.845731,-26.565908,-28.987341,-29.310042,-28.434026,-27.359304,-26.685890,-24.813797,-22.043037,-18.673623,-17.005567,-16.938882,-16.173579,-15.109671,-14.447169,-15.186086,-16.726432,-16.768219,-16.011459,-15.856162,-16.302340,-16.850004,-16.899164,-16.049832,-14.002017,-12.255729,-11.510980,-10.467779,-10.026137,-9.386062,-8.847564,-8.410654,-7.975340,-7.541632,-7.109538,-5.679068,-3.150230,-0.523033,2.002514,4.826403,7.048627,6.869176,5.988044,4.605221,3.820702,4.034477,5.146541,5.756885,5.565504,4.572389,3.377534,3.380933,3.782579,3.582466,4.380588,5.476938,6.871512,7.964302,7.855305,5.944514,3.431924,2.217530,1.901327,2.883311,3.363476,3.041818,2.118333,2.793017,5.565865,7.936873,9.106038,9.073357,8.438825,7.902439,7.464197,6.424094,3.682129,1.738298,-0.607402,-1.654972,-2.804415,-4.755734,-7.008930,-10.164006,-13.420963,-15.679802,-16.040526,-16.303136,-16.467633,-16.034018,-14.602291,-13.072455,-11.244509,-10.118455,-9.494292,-8.872021,-8.351642,-8.833156,-9.016561,-10.001858,-9.989047,-8.478126,-6.869097,-6.361956,-6.956705,-6.953341,-6.151865,-6.252274,-7.054566,-7.458742,-7.864799,-7.772735,-7.182549,-5.694239,-3.407802,-1.823236,-0.840540,-1.159710,-0.780744,0.396360,1.571605,3.044994,4.716531,5.486217,6.154057,7.820053,10.884210,13.046530,13.307017,13.065675,13.422508,15.077519,17.430713,19.382094,18.831666,16.579433,15.125400,15.769571,17.411950,17.952544,16.391355,14.828390,13.763654,13.297150,12.628885,12.158864,12.287091,14.313574,16.738316,17.461323,16.282602,14.402158,14.519997,15.936124,15.850547,13.963270,13.374300,13.583643,12.391306,10.197295,7.001616,3.904277,1.805283,2.504641,5.702358,9.398441,10.092896,9.485732,8.876954,8.466569,7.154586,5.541011,3.325851,0.909114,-1.109193,-1.329062,-0.750486,-0.773457,-2.097968,-3.924010,-5.151577,-4.580660,-3.211252,-2.043344,-3.076929,-6.211998,-10.648544,-13.986558,-15.826032,-17.066958,-15.509328,-13.253133,-13.398366,-16.245017,-17.993078,-17.442541,-16.693397,-15.945638,-15.099255,-12.854239,-10.410582,-7.268275,-4.927309,-3.887675,-3.649365,-3.012370,0.023319,4.157712,7.590816,9.922642,9.953197,6.782491,3.610534,2.137334,1.862900,0.787242,-0.589632,-0.567712,0.953011,2.372546,1.590903,-1.391909,-4.475882,-6.561005,-7.347269,-7.734665,-6.923184,-6.512817,-7.203553,-7.395383,-6.088299,-5.782290,-6.277348,-5.973463,-5.570624,-4.668824,-4.668053,-5.268300,-3.769557,-1.571814,0.024938,1.020709,1.615508,2.209345,2.602230,0.694171,-1.814822,-3.324740,-3.435572,-3.247309,-4.859943,-8.373463,-10.887860,-11.003125,-10.219248,-7.936220,-5.054032,-2.372673,-1.592135,-2.212408,-2.633483,-3.155351,-4.778002,-5.301427,-4.725616,-4.150560,-3.876251,-4.202678,-4.829833,-5.657706,-6.086288,-7.115570,-8.045542,-9.276196,-9.007523,-9.239513,-9.272157,-9.105446,-8.139371,-7.273924,-5.409094,-2.544874,0.618746,2.081775,3.544221,6.906094,11.467402,15.328154,19.088359,23.248026,28.207163,30.965779,30.623882,28.981482,28.038587,28.095206,28.151346,28.907017,30.362228,30.916985,30.071299,29.125177,28.978627,30.331659,31.584279,30.036498,27.788322,26.839760,26.490820,24.841510,23.791839,24.441814,25.591443,25.140735,23.889697,22.738337,21.886664,21.234685,19.282407,17.229840,14.076989,11.123864,9.570472,8.616820,7.562916,6.508768,5.054384,3.999770,3.644935,1.989885,-1.365371,-4.320826,-6.476474,-8.032306,-10.188315,-12.244495,-11.700837,-8.257334,-5.113980,-3.670767,-3.927688,-3.884736,-4.841904,-5.499185,-5.156571,-3.714056,-2.271633,-2.229294,-3.887034,-5.744844,-6.802719,-5.860651,-4.318633,-4.476660,-5.834723,-6.992816,-7.350933,-9.309066,-12.367210,-14.225357,-15.383501,-15.341635,-15.699753,-14.657848,-12.615913,-10.073942,-8.431929,-6.689867,-4.247749,-1.705570,-0.163322,0.779001,1.021404,1.263896,1.306481,1.249166,1.891958,3.734863,5.277887,4.721037,2.264318,0.907737,1.051300,2.895014,4.338885,4.982918,5.227120,4.971498,3.316057,2.260804,2.905744,3.250885,3.596231,2.441789,1.987566,3.233567,4.979798,5.726266,6.272977,6.919936,7.467150,8.414625,9.862366,10.510381,9.058674,7.207253,4.856122,5.305289,6.954758,7.404537,5.054630,0.205045,-4.144213,-4.893138,-3.941724,-3.489965,-4.337854,-5.085387,-6.632556,-6.479356,-6.525781,-7.971825,-11.017482,-15.162746,-17.807611,-18.252071,-17.296120,-16.439752,-16.682960,-20.025740,-24.168085,-26.209989,-24.651445,-21.592449,-18.732994,-19.273074,-22.012683,-24.251816,-24.890465,-25.128625,-24.466291,-21.603455,-18.840113,-17.176258,-17.211884,-18.246985,-18.781556,-18.415589,-18.549080,-20.482022,-21.714409,-20.046235,-16.377494,-11.808181,-9.538289,-8.867812,-7.796744,-7.025080,-6.052813,-5.179937,-4.006446,-3.332335,-2.757597,-2.582227,-3.406218,-4.529564,-5.252260,-6.774300,-9.295677,-9.616386,-6.736420,-3.855775,-2.574443,-3.092419,-3.009697,-0.826272,2.357864,6.542715,9.928287,11.914587,12.701620,13.289393,14.277910,14.167178,12.657203,10.847990,8.839545,6.031874,3.924983,3.818878,5.413563,6.809046,7.405332,4.402425,1.200333,-1.000939,-1.101386,0.398998,1.200219,0.002282,-1.794808,-3.291043,-3.386420,-1.680933,1.025424,1.132657,-0.559229,-2.250229,-1.840338,-0.829549,-0.317858,-0.905259,-3.091748,-4.577317,-5.061963,-4.445681,-4.028464,-4.110308,-5.391207,-7.571158,-9.150153,-9.428189,-9.105260,-7.781361,-6.656488,-6.330635,-5.703798,-2.975971,1.352850,4.882670,4.713494,2.145327,0.278173,-0.087964,0.146922,-0.017164,0.619781,1.557762,1.196784,-0.163149,-2.122032,-2.079862,0.563367,5.607659,8.853017,8.999446,9.546950,11.695533,15.145200,16.895954,16.947799,16.600740,16.654780,17.309922,17.166172,16.723532,17.082006,17.941599,18.202313,16.164152,12.527119,10.491219,11.256455,12.522829,11.990346,9.859008,8.728820,9.099783,8.271901,4.145178,-0.580384,-3.304782,-3.428013,-2.550074,-2.970961,-3.090673,-2.109207,-0.726559,-0.942728,-1.957711,-2.271504,-2.484107,-3.495516,-4.405729,-5.214743,-5.822557,-6.429168,-5.934574,-4.138773,-2.541763,-0.943542,-0.144108,0.056541,-0.041594,0.361490,0.865794,0.071320,-0.621931,1.386043,3.595244,4.105672,3.117330,2.230218,2.544338,2.959691,3.076278,1.494101,-0.086840,-0.266543,1.354991,3.277765,4.101779,5.527034,8.353530,10.781269,12.610250,14.040475,16.171944,19.204657,20.038615,17.873818,15.110266,14.047960,14.086900,13.127086,11.568518,11.011196,10.155120,8.400290,7.246706,7.594367,7.743274,7.793426,7.344823,5.497464,3.451350,2.906479,3.062851,3.420465,3.979321,4.739418,6.800756,8.863333,10.727149,12.192203,12.358494,11.426021,8.394783,5.564778,3.836007,1.608467,-1.117842,-1.942922,0.233225,2.610600,2.089199,1.169023,0.650068,1.732335,2.215821,0.600524,-2.213556,-4.426422,-5.738076,-6.548519,-5.957752,-4.565778,-3.572599,-4.678217,-7.582633,-10.285849,-12.387868,-12.888692,-12.288322,-11.586761,-11.784011,-12.780075,-13.174954,-12.868650,-13.861167,-14.452506,-12.742670,-10.631662,-9.619483,-8.906136,-6.691624,-4.175949,-3.859115,-5.141122,-4.621975,-3.701676,-2.780227,-0.857631,1.666108,3.790989,5.317008,5.944163,5.672450,5.301867,4.632410,3.264077,2.396865,2.230771,3.265792,4.401924,3.739164,2.277510,0.816959,0.557506,2.099149,4.041885,4.385710,3.630621,2.576616,1.223689,1.671839,4.821061,8.871353,12.422711,13.875132,14.128611,13.583146,11.938734,9.295369,7.353050,7.611773,8.671533,9.732328,10.094153,9.957005,9.220881,7.885776,6.251687,3.818611,-0.613457,-4.944520,-7.174582,-6.603647,-6.031719,-6.258801,-6.784897,-7.510012,-8.934149,-9.857311,-11.279504,-14.700730,-17.820994,-19.640301,-20.558652,-22.676054,-25.492510,-27.508023,-27.522599,-25.436241,-24.248952,-25.760739,-27.171603,-26.781551,-25.890585,-25.298710,-25.205931,-26.612251,-29.217674,-32.622206,-32.625850,-31.128611,-29.130493,-28.231500,-29.631637,-31.130908,-30.529318,-29.326871,-28.423571,-27.319423,-24.614432,-21.608601,-19.401937,-17.794442,-16.686122,-16.776982,-16.467025,-16.256258,-14.944683,-13.232307,-12.419134,-11.705168,-10.190415,-6.074879,-3.258565,-2.641478,-1.923623,0.994996,3.214372,3.034502,2.955379,4.477000,6.799359,7.322451,7.346271,7.670813,8.796073,11.222045,12.948724,14.076105,12.704181,10.332949,10.762402,14.592536,17.623343,17.254820,15.686961,13.919760,14.253210,14.787308,15.922047,17.957420,19.793424,20.530051,20.667296,20.205153,20.043616,19.382679,20.422336,21.362582,22.903409,22.944813,20.486786,18.529322,16.172416,14.316061,12.460250,12.004978,11.250238,10.596023,8.442327,6.489144,6.036466,7.484288,8.832602,7.481402,3.930681,1.080433,1.130649,0.881325,-0.267548,-1.515976,-2.663967,-2.211527,-1.858663,-2.305384,-3.951695,-4.797604,-5.043118,-5.688245,-7.332993,-7.377367,-5.521377,-5.065029,-5.208331,-6.551291,-7.093916,-6.436213,-5.178192,-3.219858,-1.861221,1.497712,6.856933,11.716435,14.376208,14.936246,14.296540,13.557082,15.017864,17.578877,19.240114,19.801566,19.663225,19.725082,19.287130,18.349359,18.711762,20.674329,22.937052,21.499923,18.062933,16.726073,19.089335,21.752710,23.516189,25.579763,29.543424,32.607162,33.470969,32.434836,31.498754,32.262713,34.126705,35.290721,35.054751,33.618787,32.682819,30.746839,28.510836,26.574802,23.538727,20.102602,16.166418,12.830166,9.593835,6.557417,3.220903,-0.615718,-3.952455,-5.889316,-8.026313,-10.763453,-12.300747,-14.038205,-15.775835,-16.713648,-15.951653,-14.489860,-15.128278,-17.266918,-19.105787,-18.244898,-15.484258,-13.823878,-13.963768,-12.903937,-11.744395,-10.185151,-9.126216,-9.367599,-11.709311,-14.951360,-15.693756,-14.936510,-13.979631,-13.323129,-12.067014,-12.611295,-14.555982,-14.801086,-12.646615,-10.192580,-9.938990,-11.485856,-11.533187,-10.580993,-10.329283,-10.578067,-9.327356,-8.077159,-6.427485,-5.778345,-6.829748,-6.881704,-5.534223,-4.087314,-3.740987,-3.895253,-3.950119,-3.305597,-0.661696,2.281575,3.224205,2.666186,2.107507,2.148159,3.088132,4.227417,4.866004,6.003883,8.741046,11.877481,13.013181,12.248135,10.882334,9.215769,8.848429,7.980306,6.311390,5.641672,6.471142,7.899791,8.227609,7.854588,6.180717,3.805988,1.130391,0.253917,-0.023443,-0.301699,-1.180860,-2.460934,-3.241932,-2.323863,-1.806734,-2.590557,-4.475339,-6.561091,-8.947820,-11.335536,-13.024249,-15.213967,-17.104699,-18.096454,-18.789242,-19.483070,-19.777949,-20.473887,-22.770894,-27.268977,-30.868146,-33.168410,-33.969778,-32.872259,-31.675861,-30.080593,-30.086464,-30.993484,-30.301660,-27.511002,-24.321518,-23.333218,-22.646110,-21.360202,-18.375504,-15.292024,-13.309772,-12.228755,-10.848984,-8.870465,-7.693209,-6.217224,-4.242518,-2.469101,-1.996981,-3.126167,-4.156668,-3.388492,-1.321649,1.443854,2.708006,2.070800,1.132226,1.592276,3.350940,3.608211,2.664078,2.218534,3.871570,7.723175,10.373343,12.522062,14.769326,16.415124,16.059447,16.302287,17.243634,17.883480,18.021815,18.358630,19.593916,19.127663,16.559863,13.590506,13.919582,16.047084,18.073000,18.297321,15.520039,11.141143,8.060624,7.878473,7.494679,5.609233,3.422125,1.333346,-0.857115,-3.649268,-7.943122,-13.238687,-17.035975,-18.534994,-18.735755,-18.038268,-16.442545,-17.448594,-21.256428,-23.466055,-23.977488,-23.790736,-25.805811,-27.622723,-26.741483,-24.562103,-23.084594,-22.608966,-22.935232,-22.763402,-22.693488,-23.925501,-25.459454,-27.795358,-29.833225,-31.373067,-30.814896,-28.158724,-24.604564,-22.152428,-21.602328,-21.654277,-19.808288,-17.464374,-15.722547,-15.282822,-15.745210,-16.709725,-16.676382,-15.745192,-12.816171,-9.489332,-7.764689,-4.842256,1.777952,8.895922,12.011638,11.425086,9.936251,10.245118,11.651672,11.055898,9.557780,9.157302,9.754449,10.849205,12.141553,14.031478,14.218963,13.203992,11.886547,12.966611,14.944169,16.019201,17.191692,18.861622,19.328975,18.093732,17.055876,16.615387,16.472247,16.826437,16.277939,14.226733,12.472800,10.416120,8.056673,5.494440,5.329401,4.561534,3.490819,2.417236,1.840764,0.461381,0.079065,1.793796,4.905551,7.414308,6.820045,4.522739,4.022368,5.618908,6.612336,7.702629,7.589763,5.973714,3.454458,2.631970,4.206226,6.177201,6.944870,6.609207,7.470187,8.327784,7.381971,5.832723,5.680012,5.623813,6.764097,8.300837,10.434006,12.263576,11.789519,11.511805,13.330407,15.145296,14.756442,13.363816,13.667388,14.667128,15.663006,16.354991,17.843053,18.527160,17.307281,16.283384,18.755438,24.523410,29.987268,32.046979,30.602510,26.953828,23.000898,20.543689,19.882164,18.616290,16.546031,15.471354,16.592223,18.808601,19.920454,19.527745,18.430438,18.328496,19.021882,20.510558,21.294488,22.273632,22.047954,21.417414,19.981975,17.441595,15.896238,15.545862,15.790428,16.129896,16.164225,15.393374,13.517302,8.935968,4.149331,1.857347,3.059975,4.257173,3.648897,1.735104,0.015750,0.490793,2.060187,1.623889,1.481854,1.234036,-0.619609,-4.379127,-7.144565,-9.315967,-10.493381,-11.476853,-12.266431,-12.262162,-11.864093,-12.572272,-13.586748,-14.607570,-14.534786,-14.768445,-15.008597,-14.855291,-16.008579,-17.868509,-19.135133,-19.908502,-19.088667,-16.875679,-15.569591,-15.670454,-16.378322,-17.293246,-18.715281,-20.344479,-20.880894,-20.224580,-19.475591,-19.733982,-19.899808,-18.873124,-17.753986,-17.842448,-17.738569,-16.042402,-12.354007,-9.473439,-8.500755,-9.536014
1,3,5.971287,6.683778,6.895126,6.605330,7.514388,10.522299,13.929062,14.834676,13.839139,13.142452,13.044612,12.345621,11.045476,10.244179,9.941728,8.938124,7.633366,6.827456,6.220392,6.512176,6.302809,5.292290,5.780621,7.567802,9.053835,9.738721,9.822461,9.805057,9.386510,9.166823,8.145996,5.624032,4.600933,4.876702,5.351340,4.924851,3.297237,0.868501,-1.561355,-4.092326,-6.424410,-9.657604,-12.691903,-16.027305,-18.963805,-19.501400,-19.340085,-21.079856,-23.020709,-22.862639,-21.605642,-21.249713,-22.094848,-23.641040,-25.288285,-26.336577,-27.685911,-29.236282,-29.487684,-29.740110,-30.493555,-30.948013,-32.603477,-35.659941,-37.417398,-37.775842,-37.235266,-35.895662,-33.657025,-32.419346,-32.882618,-35.046834,-36.311986,-37.678066,-39.145067,-38.912980,-37.981797,-37.851511,-39.722112,-41.393592,-41.765943,-41.239156,-39.213221,-36.588130,-32.563874,-29.740444,-28.417829,-28.196022,-25.775011,-21.054788,-18.035343,-18.016665,-18.898745,-18.281572,-16.165136,-14.649428,-12.434436,-9.720150,-6.506559,-3.593653,-2.581421,-2.669851,-3.558933,-4.748655,-4.939007,-4.429977,-3.421554,-3.713725,-4.006481,-4.199808,-3.193696,-1.088132,0.716896,1.921399,2.825389,3.128879,3.231880,3.234406,2.736467,2.338078,4.439249,6.939994,7.940325,6.640254,5.439795,6.138960,7.637761,8.236212,5.834326,1.732114,-0.770409,-0.373230,1.223662,2.620282,2.616641,0.912755,-0.291365,0.404294,1.599747,0.395005,-1.109917,-1.915007,-4.120250,-7.325635,-9.531147,-9.136774,-8.942501,-9.948317,-12.154206,-13.560157,-12.366155,-7.872188,-3.078242,-1.384304,-2.590360,-3.996397,-3.802402,-1.708363,1.485736,2.979906,1.274162,-0.331485,0.862980,4.357569,7.052296,8.447174,9.442215,9.837432,10.232840,11.828449,14.324275,16.420328,17.016623,15.813171,15.209986,14.707080,14.104466,14.502157,16.700164,20.098500,23.197178,25.796210,27.495608,27.495385,27.295552,26.996122,27.397106,28.198517,27.300366,26.302666,26.405427,27.608662,28.612382,29.216599,29.821323,28.826567,27.832341,28.038657,29.445525,29.652958,27.060965,22.269557,18.778745,17.588540,17.298953,17.709992,18.521670,19.133997,18.746981,18.360634,18.274966,16.589986,12.905703,8.822129,5.939271,5.557141,6.475746,7.395097,7.815202,7.336070,6.957710,7.180132,7.703344,7.127354,5.252171,2.577803,0.604259,-0.468453,-0.640325,-1.311350,-2.581519,-3.850825,-4.519260,-4.586817,-6.353488,-9.219265,-9.884143,-8.348113,-7.311170,-7.573305,-7.934513,-7.094786,-4.754119,-2.312504,-0.469937,-0.126410,-0.781917,-0.736454,2.009987,6.657411,9.205823,10.555229,12.805634,17.857043,23.809461,28.662894,31.917347,33.172823,31.029328,27.686866,26.045442,25.805060,25.765724,25.327438,25.590207,26.054033,25.018922,23.084876,23.151899,24.719994,26.889166,28.259417,27.430750,25.003168,24.276674,25.351271,27.126962,27.703750,26.481636,24.260623,21.440714,17.821911,14.704216,10.787630,8.372157,6.657797,6.644553,7.632425,7.221416,4.911528,2.102760,1.095116,0.788595,0.683199,0.178930,-0.724213,-1.526228,-1.727114,-1.826871,-0.625498,-0.722995,-3.119360,-7.014595,-11.008698,-13.201669,-14.093508,-14.784215,-16.173790,-18.162234,-18.749545,-17.435725,-16.220774,-17.404691,-19.987478,-21.269135,-21.449662,-22.129061,-23.907331,-25.384473,-24.660489,-22.935378,-23.309143,-26.281783,-29.153300,-29.523695,-28.792968,-27.261122,-25.328157,-22.594075,-18.558876,-13.822562,-9.885135,-7.746596,-6.406946,-4.866187,-2.124321,1.618652,5.762728,8.007908,6.354188,1.901568,-1.849955,-3.500382,-4.349715,-4.897956,-5.345107,-4.291170,-3.236147,-0.880039,0.677150,0.735420,-0.605232,-1.844807,0.116691,2.179261,2.642901,1.807608,1.573381,1.340216,0.408113,-1.622932,-2.852920,-3.781854,-4.209736,-3.036568,-2.062353,-2.387093,-4.410791,-6.633448,-8.255067,-8.575651,-9.195201,-11.413720,-15.231211,-18.547676,-19.963117,-20.177537,-20.490937,-20.703322,-19.314692,-18.425050,-19.834399,-20.742741,-20.950079,-21.256414,-21.561750,-20.866089,-18.969433,-17.971784,-16.473145,-15.673519,-15.572907,-16.471312,-17.268737,-16.865184,-15.360655,-14.355153,-14.148680,-14.141238,-14.132830,-13.323458,-10.213124,-6.801832,-6.289582,-7.876378,-9.362221,-10.347114,-11.431060,-11.914061,-10.896118,-9.077234,-7.657412,-6.436654,-3.814961,-0.592337,2.031217,3.055699,3.381106,3.707436,5.034686,7.362856,9.491941,9.021942,7.252854,5.384677,4.917407,5.851044,7.385584,9.121026,11.757368,14.294607,14.132742,13.871770,15.011690,17.052499,16.894195,15.536777,15.680242,18.224589,20.469815,22.415919,23.562898,24.710751,25.359475,25.109070,24.359532,23.310860,21.363052,19.216106,16.870021,15.224794,14.680424,14.336909,13.594246,12.052435,9.911473,8.271359,6.732090,5.293665,1.556083,-0.380660,0.583437,0.548370,-2.785862,-7.019260,-10.251826,-12.183563,-13.414472,-14.144553,-13.173811,-9.902245,-7.729857,-7.256650,-7.782625,-9.407783,-10.332127,-11.355658,-12.778377,-14.400287,-15.621388,-16.041683,-15.661173,-14.879861,-15.197746,-18.114832,-21.931119,-23.346610,-21.461306,-18.575209,-17.188319,-15.100640,-12.812172,-12.022918,-13.232878,-14.442054,-14.050449,-13.458063,-12.864899,-11.870957,-9.876240,-7.680750,-4.884487,-2.987453,-2.489651,-2.991082,-2.591747,-1.291648,-0.590788,-0.589166,-0.386786,2.016351,6.220243,8.824889,8.130287,5.436435,4.443332,5.250975,7.059363,8.268494,9.378366,10.088978,10.400328,11.012413,10.725232,7.838783,2.953065,-0.731925,-1.216189,0.200271,1.117455,0.535358,-1.246020,-2.526681,-2.706628,-2.185862,-3.064386,-4.642202,-6.419311,-7.195717,-7.571420,-7.946424,-8.920731,-10.294342,-11.367260,-11.339487,-11.511026,-11.481879,-10.852048,-10.121536,-10.390345,-11.158478,-11.525936,-11.292723,-10.658841,-10.424292,-9.489080,-8.753207,-9.916675,-13.079487,-14.941646,-13.903155,-12.264016,-12.424233,-12.483807,-12.142743,-11.801042,-10.058709,-8.115745,-5.972155,-4.627940,-3.983105,-3.437652,-1.391584,1.055094,4.402381,8.750273,12.098765,13.647856,15.297541,17.947817,20.398681,21.150129,21.402156,22.454761,24.507939,26.761686,28.615998,29.670872,29.326305,29.282291,29.338827,30.395909,31.753533,32.011695,30.270390,28.129616,26.989367,26.149639,26.010427,26.171729,26.433538,25.295852,23.858664,22.921971,23.385769,22.950052,21.614815,20.580055,19.845767,19.711945,19.578584,19.945681,20.013230,19.481226,18.649664,18.318538,17.987845,16.657579,12.527734,7.698305,3.769287,2.140676,2.212464,2.684648,1.357221,-2.269821,-5.996485,-7.922776,-8.148700,-8.274262,-8.799467,-9.324322,-10.848833,-12.373004,-12.696843,-10.820354,-7.243544,-3.666419,-1.088984,0.588754,1.066790,-0.054884,-3.576272,-7.297381,-9.318217,-9.138787,-9.159096,-9.479151,-10.298958,-10.818524,-10.837855,-10.656957,-10.475837,-10.794501,-12.412956,-14.131208,-13.249264,-10.867130,-9.784813,-9.902319,-9.419656,-8.436829,-6.453846,-4.970713,-3.387438,-1.704025,-1.020484,-1.936819,-2.353039,0.230850,3.714842,6.198928,7.183103,6.367360,4.351691,3.336090,3.720549,3.305062,0.789622,-2.425779,-5.541147,-6.356489,-5.471813,-4.687125,-6.402433,-7.817744,-6.933064,-4.448401,-2.263762,0.120846,2.405415,2.889940,0.974412,-1.841176,-2.856830,-0.872558,1.611632,1.495735,-0.020258,-0.736353,-0.752558,-0.468880,-2.985325,-7.901902,-12.618617,-15.435477,-15.752490,-13.569663,-11.987002,-12.204516,-13.322211,-13.640093,-13.658172,-14.976453,-16.294943,-15.513650,-13.132581,-11.851743,-13.371142,-14.490787,-12.010684,-7.930839,-5.051261,-4.971956,-8.592931,-12.314193,-11.535749,-8.557606,-7.379770,-8.002250,-9.125051,-8.248181,-5.371646,-3.495454,-3.019610,-2.444123,-0.868998,1.505758,3.180137,4.854134,6.427741,7.500952,7.973760,8.346159,10.018142,11.989702,15.560833,19.231529,22.801783,24.571589,24.840939,24.109829,24.178251,26.546199,31.013667,33.680649,31.447138,26.413129,24.178615,25.743590,27.108048,26.071983,23.635389,22.398260,22.660590,22.322374,21.383605,20.844279,20.204388,19.063928,17.922892,18.281276,18.739073,19.396278,20.652887,21.108892,21.364289,21.319074,21.873239,22.026781,20.979694,18.631972,16.483612,14.334608,12.284955,10.434648,7.383682,3.732053,0.079756,-3.473213,-6.426860,-8.681189,-10.536204,-12.691909,-16.848310,-21.205409,-24.163213,-24.721723,-22.980945,-20.940883,-20.401540,-21.762921,-24.025028,-25.087867,-23.851440,-22.115752,-22.180805,-23.946603,-25.413150,-24.680448,-23.448501,-22.817313,-23.286886,-22.557223,-20.828327,-21.000202,-21.872849,-22.146272,-21.420472,-19.795454,-18.871219,-18.947769,-20.625107,-22.603235,-22.982156,-21.961871,-20.842382,-19.323691,-17.005801,-14.088712,-9.472427,-6.756947,-8.042274,-10.728408,-11.315352,-8.203107,-4.191673,-1.981052,-2.671245,-4.562253,-6.054077,-6.746717,-6.040174,-4.334449,-2.829542,-1.425454,-1.722185,-3.519734,-4.518104,-3.417293,0.182699,3.881872,5.980225,5.877759,5.374474,3.970372,1.365451,-1.840286,-2.646840,-2.454210,-3.462394,-4.971393,-5.681204,-5.591827,-4.303261,-2.215504,0.471445,3.357588,4.242925,1.627459,-1.588808,-2.305876,0.076258,3.557596,5.238140,4.517891,3.296853,1.875027,2.152416,2.729022,2.004848,-0.320105,-1.945832,-1.572332,-0.799601,0.072363,0.843564,1.814004,2.083687,0.852615,-1.579207,-2.811777,-2.545091,-1.479145,-1.013937,-0.849461,0.314285,2.177306,3.439605,3.801186,3.662054,3.722212,4.981666,7.440418,10.198474,10.955838,10.912514,11.068508,10.623823,9.178464,7.032437,5.385746,4.638396,5.690392,7.741740,9.492444,10.542509,11.091941,11.040746,10.388928,9.636494,9.483448,9.529797,9.475546,8.520700,7.465267,8.209251,10.452659,12.395496,13.537769,14.579484,15.820647,17.961264,20.601342,21.840887,21.079906,19.418404,17.956390,15.493868,13.330847,11.467332,9.703331,8.638851,8.673898,9.708479,9.842602,8.876273,8.209500,7.542290,5.674650,3.206587,1.638109,1.469224,0.799938,-0.669741,-0.639804,0.389755,-0.081057,-3.352230,-7.223757,-9.295632,-8.767844,-9.540388,-11.913254,-12.586436,-11.459924,-10.333710,-9.107788,-7.182147,-5.556781,-4.431680,-4.406837,-5.082244,-5.557891,-7.033771,-8.909874,-10.086193,-10.962719,-13.739443,-16.416357,-18.893453,-20.970720,-21.748152,-21.225738,-20.403471,-20.081341,-19.659340,-17.637458,-16.015688,-15.394019,-15.172444,-13.850952,-12.029536,-10.308186,-8.086893,-5.965648,-4.244442,-3.323266,-1.702111,0.319033,1.540174,1.161322,0.582485,0.903674,2.424896,4.646162,4.967481,1.288861,-3.189687,-3.568156,-0.946535,0.275185,-0.602987,-3.081041,-5.558970,-6.236762,-4.214410,-3.791903,-5.369233,-8.146389,-10.623364,-11.700148,-10.776731,-9.253105,-6.729259,-4.405186,-2.480875,-1.156318,0.668495,3.293572,4.918923,3.244557,1.070483,-0.303290,-1.676753,-3.149897,-4.422712,-5.295191,-6.267324,-8.039102,-10.510517,-11.681559,-11.652220,-10.022491,-9.192363,-9.761828,-10.930876,-11.699500,-11.167691,-10.135440,-9.302739,-9.469579,-11.035952,-13.201850,-15.467265,-15.232187,-14.096610,-15.060524,-18.223922,-21.386797,-22.949139,-22.910941,-21.172195,-18.432894,-16.193030,-15.652594,-14.711581,-14.369981,-15.027789,-16.284996,-16.141595,-14.697578,-12.652940,-10.507673,-8.061769,-5.415223,-2.068026,0.879826,1.828342,1.477528,1.527389,2.377933,3.029165,4.481093,6.233721,7.987056,9.741103,12.495869,15.151360,15.207580,12.564535,9.522231,9.280672,11.739865,13.599813,12.760523,10.721998,10.484244,11.847265,13.211065,14.375649,15.341022,16.807186,18.374147,18.441909,19.210474,21.079847,22.950030,24.021029,24.492845,24.765482,25.638943,26.613230,27.088348,28.464297,29.741081,28.618702,24.797162,21.376463,20.556607,21.337597,21.419433,20.302117,18.485650,14.170035,9.955271,6.441360,3.728302,1.416099,-0.695250,-2.005743,-2.215381,-0.224164,1.867908,1.960835,2.154617,4.849254,7.844743,10.241085,11.038279,11.636323,12.135216,11.434957,10.535543,9.636974,8.839248,7.042361,5.746313,5.851100,6.656720,6.463170,6.270448,7.778550,9.087473,9.297214,9.007769,9.519135,10.431307,11.044282,11.758056,11.872623,11.487981,12.004123,14.921045,17.738743,18.657210,17.476442,16.896434,18.717178,21.738671,24.460905,26.583875,28.907573,28.531995,25.557133,23.782980,22.609529,19.836773,17.964705,17.193318,16.122603,13.552553,11.183160,9.814415,9.146311,9.378839,9.311991,8.645757,8.080128,7.515096,7.350650,8.086783,8.623483,7.860741,7.298548,5.736892,4.875764,3.515154,1.555050,-0.704559,-1.963682,-2.222332,-2.780519,-4.238256,-5.095553,-5.952423,-6.208877,-6.364928,-7.920588,-11.175869,-13.730784,-14.185346,-12.539568,-12.193463,-13.047044,-13.200324,-11.153318,-9.206038,-8.858500,-9.010717,-8.862703,-9.014473,-10.266041,-12.317422,-13.568631,-13.819684,-14.170595,-15.521380,-16.572054,-15.422634,-12.573135,-11.323573,-12.973964,-15.924326,-19.174674,-19.825025,-19.375397,-18.425806,-17.076269,-15.026805,-13.877430,-14.228162,-16.379020,-19.230021,-20.581183,-20.232526,-17.484068,-15.635827,-13.487822,-10.940073,-7.992599,-5.045419,-3.598553,-2.752021,-1.905843,-0.960038,-0.514628,-2.369632,-7.225072,-11.380968,-11.837341,-9.794213,-9.151605,-9.509538,-10.268035,-11.127116,-11.086805,-11.047123,-12.008093,-14.069738,-15.432081,-13.895144,-10.458950,-8.823524,-9.088888,-10.355067,-10.022085,-8.989965,-9.558732,-11.728410,-12.699025,-12.370600,-12.243162,-11.616736,-9.191346,-8.267019,-10.343781,-12.821658,-12.800676,-11.380861,-10.462241,-11.044842,-12.828691,-14.913817,-16.400245,-17.188004,-18.477123,-18.867628,-17.959550,-16.552915,-17.747753,-19.144094,-20.241966,-20.041399,-19.742422,-19.345066,-19.349360,-19.355336,-20.163023,-21.672453,-23.683656,-26.096665,-26.911510,-25.228223,-21.846836,-19.367382,-19.289894,-20.114403,-20.240943,-18.769547,-16.900248,-15.433081,-15.268079,-14.705277,-13.944709,-11.786410,-8.230415,-4.876758,-2.625477,-0.876606,0.569819,1.913760,3.455182,3.694048,2.930320,2.163961,1.394933,0.523199,0.348720,2.771458,5.091373,6.708426,7.922579,9.633792,11.142024,10.047235,9.049385,9.748433,11.844338,13.137058,12.626551,10.712776,10.595690,12.375250,14.351414,15.924137,17.393378,18.759090,19.221231,19.379756,19.634620,18.985778,18.633184,16.376792,13.516556,11.652430,11.184367,10.412320,9.236241,8.256083,8.271796,8.083334,6.990646,6.593685,6.992399,7.386740,7.676658,8.962101,10.143019,10.819360,9.891073,8.558106,7.520407,8.277923,9.630601,9.878387,9.521229,10.559071,13.591860,16.419540,18.242056,18.159353,16.971375,15.078066,13.079368,11.875225,9.965580,8.150374,7.629550,8.403049,7.770812,5.232780,2.888892,1.539090,-0.216688,-2.178502,-2.546413,0.179517,3.799225,6.912651,8.519730,9.220400,10.514597,11.902258,12.583317,13.457711,14.325374,14.186241,14.640246,16.787322,19.627403,22.460421,26.186310,29.005002,28.516427,26.720518,24.017206,23.006420,22.988091,23.562149,22.628523,21.487142,19.637934,19.880828,21.615751,23.542631,24.561394,24.871967,23.974275,21.768245,20.753802,20.830871,20.799376,19.759240,18.710388,18.352744,17.186228,14.410765,10.826276,7.832682,6.729905,5.817865,5.096483,3.365679,1.725371,-0.224520,-1.584077,-2.353380,-4.132513,-7.521557,-11.020597,-13.729714,-15.348993,-16.478518,-17.718375,-18.968647,-19.729420,-20.900781,-21.082815,-19.475610,-16.079252,-12.893829,-9.519430,-8.756141,-9.504053,-10.063254,-10.833834,-12.515883,-13.809492,-14.514751,-15.131752,-15.360586,-15.501345,-15.454123,-16.919012,-18.596105,-19.785496,-20.787280,-19.401551,-17.828403,-16.967933,-18.220237,-18.485409,-17.163549,-15.654751,-14.659115,-14.176737,-12.707717,-10.852152,-9.410143
1,3,3.836038,4.192893,4.749304,4.105267,2.160782,1.415847,3.070460,3.724619,2.378322,0.831569,1.284357,4.836685,9.588551,11.539954,10.490892,9.041363,8.791368,9.640902,11.289967,12.938559,13.386678,11.634322,9.681491,9.128182,10.274394,10.920127,10.965379,10.910149,12.054436,15.298238,16.341555,13.484385,10.726728,11.568582,14.309947,15.150822,15.391205,16.431097,17.670495,18.109400,17.247811,15.385726,14.623146,14.260070,13.196496,11.232425,10.467856,11.902788,13.437221,11.071155,5.404589,-0.362477,-3.930043,-4.498110,-5.966678,-8.635747,-10.405317,-12.175388,-14.245960,-16.917033,-19.588607,-19.660683,-17.733259,-16.506336,-17.779913,-20.453991,-24.028568,-26.603645,-26.379220,-24.755294,-23.131867,-22.408936,-21.786503,-19.964565,-17.843123,-16.422176,-13.701722,-10.881761,-9.562293,-10.243315,-9.724827,-8.306829,-7.989318,-7.572294,-5.355755,-4.039701,-5.624129,-6.609038,-4.394428,-0.380296,1.833359,1.546539,-0.440755,-2.028521,-0.116757,2.994538,5.605367,6.515732,7.325633,7.535075,7.444058,8.352584,10.960657,12.468278,9.875449,5.882173,3.688452,3.694289,2.799687,0.404647,-0.590827,-0.186733,1.316932,3.520171,5.122987,6.225382,5.727360,4.528924,3.030077,1.730821,0.531160,-0.068902,0.030638,0.229783,-0.271464,-0.373099,0.024882,0.422481,-0.480296,-0.783447,-2.286968,-5.990854,-10.695103,-13.299710,-13.104671,-13.609982,-14.515639,-14.921638,-13.927975,-13.434646,-15.341646,-17.448970,-18.856615,-17.864577,-15.272849,-11.481429,-7.290311,-3.199491,-1.108964,-1.018725,-1.228770,0.160907,1.750310,2.339444,0.928315,-1.083074,-1.794716,-2.106607,-2.718741,-3.631113,-3.843718,-3.956551,-5.769606,-8.282877,-10.196360,-11.610049,-13.023938,-13.838022,-14.452296,-15.066752,-14.581387,-11.696193,-9.511166,-8.826300,-7.941588,-7.657024,-8.972604,-10.088320,-8.304168,-5.820140,-3.036231,-0.852435,0.831255,1.814844,3.698339,6.781746,8.665071,7.848321,6.131502,7.514620,9.897681,11.580693,8.663661,4.846591,3.129491,3.612367,5.595225,7.978072,10.660914,12.543759,14.726612,16.609480,18.292370,19.875289,21.658243,21.341239,20.924283,21.207383,21.490545,21.473776,21.657083,21.840472,18.523950,12.707524,8.191202,6.574989,6.358892,5.542919,3.827076,2.211370,0.295808,-1.519603,-4.034857,-7.149946,-9.064863,-10.179602,-12.294156,-15.108518,-16.022681,-14.636638,-12.750382,-12.463907,-12.677205,-12.490271,-11.603095,-10.915673,-11.927997,-13.040060,-13.151856,-12.363378,-13.074618,-15.485570,-17.996228,-20.706584,-23.116632,-25.226364,-25.935776,-26.544858,-27.753606,-28.862012,-28.570069,-27.877771,-26.885112,-25.192084,-22.298681,-19.104897,-16.810725,-14.416159,-11.421192,-8.625817,-6.030029,-4.233820,-4.437185,-3.440117,0.657389,6.155342,8.553745,7.952607,7.451933,9.151728,12.052000,14.152754,14.553996,12.855733,10.357969,8.260711,8.763966,10.567738,11.472033,13.176858,14.082217,14.888117,14.694563,14.401560,12.209115,9.617232,8.425916,8.335174,9.445011,10.755431,12.766440,14.378043,15.790245,16.803051,17.016467,16.930496,15.545144,12.460416,8.776316,8.592849,10.810020,10.127833,6.446292,4.465403,7.085169,11.205595,11.826685,7.848443,5.070874,5.893981,6.717768,4.242239,1.667399,2.193251,4.319798,4.947044,2.974994,0.903649,-0.766985,-0.536907,-0.406111,-0.774596,-1.642359,-2.109395,-1.775702,-1.041277,-0.206118,-0.070221,-0.733583,-0.096203,2.341923,3.480797,2.320422,-0.239200,-0.198068,1.243822,2.086472,2.229883,3.074058,4.318998,6.064705,7.011181,7.058428,6.606448,7.755241,10.104809,11.855154,11.506277,10.358179,8.710861,8.364324,9.618570,11.273599,10.929412,9.586009,9.943392,11.701561,12.360517,12.620259,12.380789,10.542106,8.304211,6.967104,7.030785,8.095254,8.260510,7.026554,5.993385,5.861003,6.229408,7.198599,7.968575,7.139336,6.410882,5.883210,4.356321,1.530213,0.104885,0.480337,1.256567,0.033574,-2.088644,-1.610088,0.469241,1.349341,-0.169790,-2.988153,-7.405751,-10.822584,-13.238655,-16.153966,-19.268520,-22.282317,-23.595361,-23.707653,-22.919196,-22.929993,-22.940046,-23.049357,-22.957930,-22.965766,-23.272869,-22.879242,-22.284887,-23.289808,-25.494007,-26.797488,-25.600253,-24.202307,-23.303652,-22.804292,-23.004231,-22.103471,-19.102016,-14.799871,-11.797038,-10.893522,-11.589327,-11.284455,-10.578912,-8.372701,-6.665827,-5.658293,-2.850104,1.858736,5.868222,8.078351,7.989117,6.300517,6.012546,7.825198,10.538470,11.752356,11.766853,12.981954,15.297655,17.013952,15.830838,13.448310,9.966362,5.384988,2.104184,2.123944,4.144263,6.965136,8.586557,9.808520,11.631021,14.054054,15.677612,18.001691,19.526285,19.951387,18.476993,17.003096,15.729691,14.756771,15.084331,16.512365,18.340867,20.069830,22.299249,24.929117,27.859428,29.990177,30.521357,30.652961,31.084984,30.917418,30.150259,28.983498,27.117131,24.251151,21.285550,19.420323,18.655463,16.990964,14.726819,12.363022,11.599566,11.436444,10.673650,10.311177,10.249019,9.387169,7.725620,7.164365,5.503399,4.042714,3.682304,4.422162,5.462280,6.102654,5.743275,4.484137,1.525234,-0.833441,-2.791895,-3.250135,-2.108168,-1.065999,-2.223636,-5.881085,-7.838353,-6.895447,-3.552373,-0.409138,1.834251,3.777789,5.221468,7.865281,10.709223,11.853287,11.397466,9.941754,9.586145,10.330631,14.575207,21.119866,25.364603,25.609409,22.454281,18.899210,16.444191,14.989218,13.734285,12.179386,11.324513,12.169663,13.414828,12.960002,10.705181,8.150357,5.995525,3.440680,0.485815,-1.169074,-1.523994,-1.378950,-1.833948,-2.288993,-3.544091,-6.499246,-9.554464,-11.109751,-10.465111,-10.620549,-12.676072,-16.531682,-19.987387,-22.143190,-23.199096,-25.255110,-28.911236,-32.467480,-34.323846,-33.680338,-32.436960,-31.993718,-34.450615,-38.607655,-40.964844,-40.722184,-39.679679,-39.437335,-40.295154,-40.353140,-40.111298,-38.669630,-35.428141,-32.686833,-33.445710,-36.004777,-36.764035,-35.023488,-31.883139,-30.942992,-31.103049,-30.763313,-29.823787,-30.284474,-30.345377,-31.206497,-32.067839,-31.929403,-30.191193,-28.953212,-27.315460,-25.577940,-23.340655,-23.703607,-25.666796,-26.030227,-23.293899,-19.357815,-16.221977,-13.686386,-11.651044,-11.615952,-11.781111,-12.146524,-12.212190,-11.278112,-9.444291,-8.210727,-7.977422,-6.744376,-4.711590,-3.279066,-1.846804,-0.914804,-0.383068,0.348405,1.979613,4.110557,5.041235,6.471648,9.001795,10.831677,11.961292,12.890641,13.019724,12.048541,11.177091,11.205376,12.033394,11.761147,11.188635,10.415857,8.142814,3.969507,0.095936,-1.577899,-2.551997,-3.726357,-5.000979,-6.975862,-9.651006,-12.526410,-15.202073,-16.977994,-16.354173,-16.430609,-18.107301,-19.484247,-18.461448,-16.138902,-13.416608,-11.094565,-9.472772,-7.751228,-5.429932,-1.708883,2.011920,4.732479,6.152794,5.772867,3.492699,1.312291,0.331644,0.050759,0.469639,1.888283,3.006693,3.224871,2.142818,0.660535,-1.221978,-2.004717,-0.287683,1.329126,2.945712,4.262075,5.178217,5.094140,5.409844,5.725330,7.840600,10.755656,14.770498,17.785128,17.299547,14.413755,12.227755,12.941548,14.455134,15.068515,15.881692,16.894666,18.207438,18.820010,17.932381,17.544555,18.856530,19.768309,20.279893,21.491282,23.602477,26.813480,30.624290,33.934910,36.345340,37.855580,36.865632,33.775496,30.985174,28.994665,27.903970,27.613091,27.122027,26.030779,24.939349,23.847736,22.355941,19.263964,15.971806,13.979468,12.886949,11.194251,9.801372,9.308315,9.015078,7.221662,4.328068,2.934295,3.140344,4.446215,5.451907,4.557421,4.162757,5.167915,8.272895,10.877696,11.082319,8.886763,6.291028,5.195114,4.999021,3.802748,1.806296,0.009663,-0.687151,-0.584146,-1.981322,-5.678681,-7.476221,-6.273945,-5.771853,-7.169944,-8.168220,-8.266682,-9.365330,-10.064165,-9.663187,-7.662397,-4.361797,-1.361386,0.438834,1.438863,2.438699,3.038343,3.337792,4.137046,5.136104,5.934965,5.633628,7.032092,10.830356,15.028419,17.626280,18.023938,17.721392,17.918640,18.615682,20.112516,20.909142,21.505558,21.101763,18.997756,16.993535,16.889100,17.384450,18.479582,19.574497,22.469192,25.163667,26.357920,26.851951,28.245758,29.939339,28.432694,25.625822,22.818720,20.311389,18.203827,14.896033,10.988006,6.979743,3.371246,1.462511,2.753539,3.744328,3.634877,2.725185,0.815251,-1.494925,-3.405346,-5.316012,-7.226924,-7.738083,-8.049489,-9.361144,-9.873049,-7.285203,-2.497609,1.289734,2.376824,1.663661,0.950244,0.736572,-0.977354,-3.891536,-7.305974,-9.520668,-10.335620,-9.150828,-7.766294,-8.882019,-11.198001,-13.514242,-14.830741,-14.647499,-14.164515,-13.881790,-13.699324,-14.717117,-15.835167,-15.653476,-14.372043,-11.790867,-10.509949,-10.429287,-10.548881,-9.368732,-8.188837,-7.409197,-8.329810,-9.550676,-10.671794,-11.093163,-11.614783,-10.636651,-9.458767,-9.381130,-10.603738,-12.726590,-15.149685,-17.573020,-18.996596,-18.920409,-17.944459,-15.768743,-12.993260,-9.718008,-7.642984,-6.368187,-5.593614,-5.819264,-6.045134,-5.671222,-4.997524,-4.824039,-3.450765,0.022303,2.795165,2.967826,1.540288,0.412555,-0.215372,-0.843488,-1.171790,-1.300276,-2.928941,-5.057782,-5.486796,-4.215978,-4.945326,-8.174836,-12.904502,-17.334323,-19.364293,-18.894408,-18.624664,-19.255058,-19.585583,-16.616237,-13.647015,-12.577911,-13.508922,-15.740042,-17.371267,-17.202591,-15.734011,-16.065519,-19.197113,-22.328786,-21.360532,-17.792348,-14.524226,-13.956162,-14.488150,-15.520185,-15.952260,-17.784370,-20.616509,-22.448670,-24.580849,-25.813038,-26.145232,-25.477425,-24.209609,-22.541780,-20.473929,-19.106052,-17.838140,-16.570189,-14.302190,-11.834137,-9.566024,-8.597844,-7.329588,-5.461252,-3.392827,-1.024307,2.544316,5.513049,4.981898,2.050872,-0.880022,-2.210777,-1.241386,0.728160,2.797866,4.667742,6.137795,7.508031,9.278460,10.349089,10.219924,10.090976,11.862250,12.733755,12.905499,11.777489,10.649734,9.322242,7.595020,5.868077,5.641421,6.315059,5.989000,5.563252,5.837822,5.712720,3.187953,-0.936471,-4.160543,-4.084256,-3.307601,-2.130570,-2.253155,-3.675347,-5.997140,-6.218523,-6.839490,-8.160032,-8.480140,-7.699808,-5.719026,-4.437787,-5.156082,-8.073903,-10.891243,-11.708093,-11.924445,-12.440291,-13.755623,-14.970434,-15.384714,-14.698457,-13.511655,-13.224299,-14.036382,-14.347896,-13.458833,-13.369186,-13.078947,-9.488108,-3.896662,-1.304601,-2.011918,-5.118605,-6.924655,-7.130061,-7.434815,-9.338910,-8.742340,-4.245096,0.652828,3.951439,5.650744,7.650750,9.851463,13.252891,15.255039,15.257915,15.161525,16.665876,19.670973,21.076823,20.383432,18.490806,16.598951,15.007873,13.117578,12.628072,13.239360,13.051447,12.964340,13.378043,15.492563,17.807903,19.424069,18.541066,16.058898,15.577572,17.297090,19.817458,20.238681,19.860761,18.783705,17.007515,14.432195,10.457750,6.684184,4.311499,3.339700,3.068789,1.498771,0.329647,-1.038578,-1.705903,-3.972323,-7.337838,-8.802443,-8.166138,-7.428919,-7.290784,-8.751732,-10.611761,-13.170868,-14.629053,-14.086315,-13.242651,-14.398060,-15.752543,-15.406097,-13.958723,-13.510419,-13.461185,-13.511021,-13.959927,-14.007902,-14.854948,-15.501064,-16.746251,-18.090510,-19.233840,-20.476244,-22.417722,-24.158275,-24.197906,-21.536615,-18.674404,-17.111275,-16.547230,-14.682271,-11.516401,-6.849622,-2.481937,0.786652,1.956141,3.626527,6.797808,9.569979,12.743037,16.416978,19.991799,21.167495,21.444061,23.221494,26.099789,27.378941,27.258945,26.539796,26.221489,26.004018,25.187378,24.171563,23.856568,26.042385,29.029010,30.616435,31.104654,31.093660,29.183447,27.474007,29.065334,32.557419,34.450255,34.743835,36.038151,38.333195,39.828958,39.625433,37.322611,34.420483,32.719040,31.018274,28.718176,26.818735,24.819944,22.321792,20.924270,20.627367,20.231075,18.835382,17.240279,16.245754,14.251798,13.258400,13.565549,13.673233,12.781442,10.890165,9.999390,10.909106,11.219300,11.029962,10.641078,11.452638,12.464629,11.377038,8.989853,6.303062,3.816652,2.030610,1.744922,1.959577,1.374561,-1.910139,-5.594537,-7.178647,-8.562481,-10.546054,-12.629379,-12.312471,-9.395343,-7.178009,-6.160484,-6.242782,-6.724917,-5.406904,-2.488758,-0.270493,0.347877,0.266335,1.184868,2.603460,3.122097,3.740763,4.259442,4.878120,5.596781,6.115410,6.333992,5.452510,3.170949,2.189293,2.607527,2.525635,2.343601,2.861410,5.079044,6.996489,7.913728,8.230745,8.147524,8.264049,8.680304,9.896272,12.111938,13.527285,11.642297,8.256957,7.471250,8.885158,12.298666,14.911758,15.424416,13.836624,12.248367,11.759628,10.370389,7.280636,3.490352,2.599520,2.608124,1.616147,-0.776426,-4.069613,-6.263428,-7.457889,-7.753012,-6.948813,-7.845308,-10.642513,-13.740445,-14.939119,-12.938552,-12.138759,-13.139756,-13.841560,-12.144186,-11.747650,-13.451968,-15.357156,-15.663228,-15.970201,-17.078091,-18.186911,-17.996679,-16.407410,-15.219117,-16.031818,-18.645526,-19.660258,-21.076027,-22.492849,-24.210738,-24.929709,-24.049777,-22.470956,-20.893261,-19.616706,-20.041305,-21.667072,-20.994022,-16.822168,-11.551524,-8.582104,-8.113921,-8.646989,-9.481321,-10.016931,-9.753832,-8.892036,-6.931557,-5.772407,-5.414599,-4.458146,-4.103060,-4.749354,-6.497039,-7.746127,-7.996631,-7.548562,-6.001932,-4.356753,-2.813034,-1.870789,-0.630028,0.809238,2.046999,1.883244,0.717962,0.351143,-0.517224,-2.087148,-4.258638,-6.131706,-8.006360,-8.882610,-8.360465,-5.339934,-2.121026,-1.203750,-3.588115,-5.374128,-5.261798,-3.751134,-2.342143,-1.734832,-3.229210,-4.025284,-3.823061,-2.822548,-3.523752,-6.926680,-11.231339,-14.937734,-16.245872,-16.455759,-16.667400,-16.680802,-17.995970,-20.412909,-22.131624,-22.952121,-22.574403,-21.998476,-22.224344,-22.952010,-23.681480,-22.512756,-21.445843,-20.880743,-21.117461,-21.455999,-21.296360,-20.138546,-18.782561,-18.328406,-20.176084,-22.125596,-23.176944,-22.730130,-22.685155,-22.942020,-22.400727,-20.261275,-17.323666,-15.587899,-15.153976,-13.621895,-10.991657,-7.563262,-3.936708,-1.511995,-0.189123,0.731911,3.251108,5.968469,6.783996,5.597690,4.609555,4.219592,4.327804,6.134194,9.738764,13.641519,16.242460,18.041592,19.538918,20.034442,19.528169,19.620102,21.110247,21.898607,20.585188,18.769995,18.053032,17.634306,14.513823,10.791587,8.967605,9.741883,8.714428,5.885246,3.954344,4.621729,6.887408,8.651389,10.413679,12.574285,14.033217,14.690481,13.946087,11.300042,7.952356,5.403038,4.052095,4.899539,5.845378,5.689621,4.732279,4.373362,5.112880,5.850843,6.187262,4.522148,2.455511,0.487363,-1.182285,-3.553421,-5.926034,-8.300112,-9.375642,-9.152613,-7.631012,-7.510826,-8.992043,-9.974649,-9.658632,-9.243978,-9.530673,-10.718704,-10.908057,-8.598718,-4.390672,-1.583905,0.421598,3.325851,5.828869,7.430668,7.331264,7.930670,10.228905,13.125982,15.821919,17.616731,17.410435,15.903048,15.794586,18.185067,20.574507,19.962925,18.050337,17.436761,18.322215,20.206717,21.290286,22.272939,22.854696,20.535575,16.315595,12.594776,11.473135,13.550694,17.427472,20.403488,20.578762,18.553315,16.727168,16.200339,16.472852,15.544725,12.815981,9.386640,6.456724,3.826255,1.795254,0.163743,-2.068256,-4.700719,-5.833626,-5.766952,-6.500676,-7.334775,-7.069224,-6.904001,-8.339083,-10.274445,-11.310064,-11.245915,-10.981975,-11.018218,-11.954621,-13.691159,-14.127806,-12.664538,-9.901329,-7.238154,-4.874987,-4.311802,-5.248574,-5.985276,-6.021882,-5.258365,-3.794699,-3.130856,-4.366810,-4.802534,-3.838000,-3.373180,-3.908047,-4.642573,-3.776730,-3.210489,-3.043822
