1,3,13.472255,13.262561,15.453018,18.743619,21.534359,21.625230,21.316225,21.807338,22.498563,22.989892,22.381318,20.872836,19.764437,19.456116,20.247865,21.939677,22.831546,21.823465,19.115426,16.007422,13.299447,11.391494,9.483555,7.675623,4.067692,0.459754,-0.548198,-0.656171,-2.264173,-5.072209,-6.780288,-7.388417,-8.496602,-8.904852,-6.813172,-3.121571,-1.330056,-2.938633,-4.747310,-4.556094,-3.064992,-1.174012,-3.083161,-6.492445,-9.401872,-10.811449,-11.521184,-13.031083,-13.841154,-12.951403,-12.461838,-14.772466,-17.683294,-18.594329,-17.705578,-16.817048,-17.728746,-18.440679,-16.452855,-13.765279,-11.977960,-11.990904,-12.004117,-11.917607,-11.931380,-11.545444,-10.659805,-8.874469,-7.889445,-9.204737,-11.220353,-10.536300,-6.852584,-3.169212,-0.686190,1.196475,2.378777,2.260710,1.242266,0.423441,-0.395774,-1.915383,-5.435393,-7.855811,-7.376642,-5.497893,-4.119569,-2.941676,-3.164222,-3.387210,-3.210648,-0.834541,1.541105,1.516284,-1.709009,-5.834780,-5.861034,-4.087778,-3.115016,-4.242754,-6.170997,-8.199751,-10.029021,-11.458812,-14.989129,-21.219978,-27.151363,-30.383290,-32.015763,-33.448787,-35.782367,-36.716509,-34.851215,-31.386492,-29.522344,-27.758775,-25.595790,-22.233394,-18.371590,-16.410383,-15.849777,-15.789776,-15.830385,-15.871608,-15.113448,-13.955910,-13.298997,-12.642714,-13.787063,-16.932049,-21.277676,-23.623947,-24.170865,-24.118434,-22.566657,-19.415538,-14.765080,-11.415287,-8.966160,-6.717704,-5.869922,-4.322816,-1.076390,1.369355,2.614414,3.358785,4.402466,6.745454,8.387747,10.429341,13.070235,15.110425,15.849911,17.488689,20.626758,23.664115,26.400758,28.136685,28.171894,27.706384,27.540152,28.273197,28.605517,28.837110,28.967975,29.398110,29.827515,29.356186,29.084124,27.911326,26.637792,25.063520,23.588509,24.112759,25.736267,27.759034,27.781058,26.702339,25.422875,24.542666,23.561712,21.680012,19.897564,18.114370,15.630428,14.145738,13.760299,12.174112,9.387177,6.599492,5.211059,3.521876,1.131945,-0.358735,-0.550164,-0.442341,-1.235267,-3.228940,-4.423361,-4.118528,-2.714443,-3.511103,-5.708508,-7.706658,-7.705552,-7.505189,-8.805569,-11.106689,-12.808551,-12.611151,-10.914490,-9.418566,-7.623379,-7.328926,-7.435206,-7.642219,-7.449963,-6.858436,-6.867636,-6.877563,-5.888214,-5.099589,-6.411684,-9.524499,-11.838031,-12.852279,-14.367241,-15.482914,-15.899297,-17.716387,-19.934183,-18.852682,-14.271881,-8.291779,-4.612373,-1.733661,1.744360,3.621693,3.298340,2.274303,2.149586,3.024191,3.898121,3.571378,3.343967,4.415889,5.187147,3.957746,2.027687,-0.303026,-1.234389,0.033600,2.300945,4.167649,4.833716,5.699148,6.363950,6.528126,6.391678,7.654610,9.916926,10.178631,9.539726,9.500217,10.060108,10.719401,10.978102,10.836214,9.093741,5.650688,2.507058,0.762856,0.118085,-1.727249,-2.973142,-4.019591,-5.266590,-7.014136,-8.362223,-7.410848,-5.160006,-4.609691,-5.459900,-6.510628,-5.861870,-5.213621,-3.965876,-2.218631,-0.971881,0.274379,0.320154,-0.834551,-3.789731,-7.845381,-10.001495,-9.758069,-8.515098,-8.172577,-9.230499,-10.688860,-10.747656,-9.506879,-7.566526,-6.426590,-7.187066,-8.647950,-9.109235,-8.170916,-6.932987,-6.095443,-4.458279,-2.021489,-0.485067,-1.049007,-2.613304,-3.377953,-3.342948,-3.508282,-2.773950,-1.939947,-3.006267,-4.472904,-5.339851,-5.807104,-5.074657,-2.542503,-0.510636,0.520948,0.252257,0.783295,2.914069,4.744585,5.274849,4.904867,4.434644,3.464186,2.493501,2.022593,2.551468,4.880133,6.408594,6.636856,6.264926,5.992809,5.520512,4.248040,3.075400,1.902598,-0.270361,-3.643469,-6.916723,-8.990114,-10.063638,-9.637288,-6.311059,-1.684944,-0.258937,-2.333033,-4.307225,-4.981507,-3.855874,-1.930320,-1.204838,-2.579424,-3.654070,-4.128771,-4.903521,-8.178315,-11.253146,-12.528009,-12.702898,-13.877807,-15.652730,-16.527662,-16.502597,-18.177530,-18.752454,-19.027363,-18.302254,-16.977119,-14.551953,-12.126751,-11.701507,-11.776217,-10.350873,-8.825471,-8.600006,-11.174472,-13.748864,-15.023176,-15.197404,-12.671542,-9.245585,-6.219528,-5.093366,-5.467093,-5.740706,-5.414198,-4.487565,-3.760802,-4.433904,-3.706867,-1.979685,-1.552354,-0.524869,1.802773,5.230579,6.858552,6.686697,6.015018,5.743520,5.972207,6.801082,7.830151,8.859418,8.788886,9.618559,12.148442,14.778538,17.408852,19.339387,21.170146,23.201135,25.432355,26.263810,25.795505,25.027443,24.759626,24.992059,24.024744,21.857685,20.590885,21.924346,23.758072,22.992066,19.926331,16.760868,15.195682,12.930775,9.966148,7.801806,5.937749,3.673982,0.810505,-1.852679,-4.615568,-7.478159,-9.740451,-9.502442,-7.364129,-5.325512,-3.486588,-1.647355,-2.007813,-3.167959,-3.327793,-1.587312,-0.446516,-0.905403,-1.363972,-0.922223,-0.180153,0.862237,1.004949,-0.252016,-2.708658,-5.764977,-6.520971,-5.376640,-4.031984,-3.487003,-1.841696,0.703938,3.349897,4.596182,5.742794,6.989731,8.336995,10.184584,12.632498,14.580737,15.329300,15.978187,18.327398,22.076930,25.626785,25.276961,22.827456,21.078271,22.229403,22.880853,20.632618,15.884697,14.037090,16.589795,20.342810,23.096133,22.449764,19.803701,17.757941,18.212483,20.067326,21.622467,20.977904,20.033635,20.189659,20.545973,20.602574,19.159461,17.816631,14.274082,10.231811,7.189816,7.248094,7.606642,7.165458,4.824540,1.083884,-2.456513,-4.696654,-5.336540,-5.176177,-3.915566,-3.354710,-2.893614,-3.732279,-4.570710,-4.408910,-4.646881,-6.984628,-9.422154,-9.759463,-9.096557,-8.133441,-7.170118,-5.706592,-5.742867,-6.278946,-7.014833,-7.650532,-9.886047,-11.721381,-13.556540,-13.991526,-12.426344,-10.760997,-10.395491,-12.129829,-14.064014,-15.698052,-17.931947,-19.065702,-17.899323,-14.132812,-12.066176,-12.699418,-14.232542,-13.465553,-11.998455,-11.831253,-12.063951,-11.396554,-9.629066,-7.761492,-6.893836,-6.026103,-5.358298,-4.190425,-4.022489,-5.754495,-7.586446,-7.018349,-4.250207,-3.982025,-9.113809,-14.445562,-16.077290,-14.608997,-12.440688,-10.372368,-8.204042,-7.235715,-6.667391,-4.699075,-2.830772,-1.462487,-1.494225,-2.525991,-3.157789,-2.789625,-2.421503,-2.953428,-3.085406,-2.417440,-1.149536,0.318301,0.986066,0.053754,-1.878639,-3.411119,-5.443690,-7.876357,-11.709125,-15.242000,-16.774986,-18.508088,-22.141311,-27.474659,-31.408138,-33.141753,-32.575509,-30.709410,-29.243461,-29.977667,-32.012034,-31.546566,-29.181267,-27.216143,-25.651199,-23.886440,-21.921870,-20.357494,-20.193317,-19.529344,-19.265580,-18.402029,-16.538697,-13.275588,-10.312707,-9.250058,-9.887648,-11.025479,-12.363558,-14.101889,-14.940477,-14.179326,-12.618441,-10.357827,-8.697488,-6.737430,-5.377657,-3.618173,-1.858984,0.399906,2.058492,3.516770,6.474735,10.032383,12.589708,13.746707,15.403374,18.059706,22.315697,24.471343,24.226639,24.581581,24.136165,23.690386,21.944239,21.697720,22.750825,23.703549,23.455888,24.207838,26.459393,28.410550,29.561304,30.111651,31.061587,31.511107,31.560208,30.908884,31.157132,31.304948,32.452327,35.099265,37.045758,35.391802,31.337392,28.082526,26.727198,25.671405,24.015143,23.358407,23.001194,21.043500,18.985321,17.426654,15.067493,11.707837,6.947680,3.087019,0.625851,-1.035829,-1.698024,-1.360736,0.076029,0.512268,0.047979,-0.616843,-0.582201,0.251903,2.685463,4.818478,4.750945,4.182858,3.314217,2.545017,2.775256,3.604930,3.134037,2.862573,2.590537,1.717924,0.944733,1.070960,2.196603,3.121660,3.446127,2.970003,2.693284,3.915970,4.838056,5.559542,5.980424,6.200702,7.520372,8.939432,10.557882,11.575719,11.092941,10.209546,10.325534,11.740901,13.255648,13.469772,13.083272,13.096147,15.508396,18.220017,18.331010,16.941373,16.451106,16.960208,17.868679,18.176517,18.183722,17.190294,15.996232,14.901537,13.706207,14.910243,15.913646,14.516414,10.918548,8.820049,8.920918,9.221153,7.220757,4.819729,5.418071,8.115783,9.512867,8.509324,6.105154,3.500360,1.194942,-0.711097,-3.017757,-6.125035,-9.032929,-10.541438,-11.850559,-13.060291,-16.670630,-20.481574,-24.593122,-27.005269,-27.218014,-26.031353,-25.945283,-26.459801,-26.774904,-26.490588,-25.306851,-22.723687,-20.541094,-19.759067,-20.477602,-21.596696,-23.016343,-24.736540,-24.957281,-23.778563,-22.200381,-22.022728,-23.645601,-24.968994,-24.692902,-23.617318,-22.042239,-19.567657,-17.893568,-16.719964,-16.546840,-16.474190,-16.102006,-14.030284,-11.159015,-8.988193,-7.817811,-5.747862,-2.878338,-1.109233,-0.940539,-2.272248,-2.304352,-1.136844,0.430285,1.497043,2.763438,5.129478,7.995173,8.560530,8.025559,7.490270,6.754670,6.718769,8.382577,10.046103,9.309357,6.372349,3.235088,2.897585,5.059850,7.821893,8.983725,9.945356,11.006797,11.368059,9.529153,7.490090,6.550882,7.311539,8.572073,9.232496,7.592819,5.453055,4.113215,2.573312,1.133357,-0.006636,-0.246656,-1.486690,-3.526725,-5.566748,-6.306746,-6.046706,-5.586616,-6.126461,-8.266229,-11.205906,-13.545477,-16.284931,-18.624252,-18.163426,-15.102440,-13.841280,-15.079931,-17.618379,-19.556610,-20.194608,-21.332360,-22.669850,-24.107064,-24.743987,-24.180603,-22.916899,-22.652858,-25.788465,-29.723705,-32.058562,-33.793022,-35.927067,-37.460684,-37.293856,-36.226567,-35.258801,-34.690542,-31.521775,-26.752484,-22.482651,-20.412262,-21.141299,-23.669747,-26.397588,-28.024808,-28.451389,-29.377314,-30.302568,-30.827133,-29.150994,-25.374132,-21.696532,-20.018178,-18.839051,-16.859135,-14.678414,-14.196871,-14.514489,-14.831251,-13.347139,-11.162138,-9.676230,-10.589399,-10.801626,-10.312897,-10.523193,-11.132497,-11.040793,-8.748065,-7.554293,-7.359463,-7.763558,-8.066559,-7.368451,-6.069216,-4.868839,-2.967302,-0.664588,1.339320,2.544437,3.050780,3.658367,4.367213,4.677335,4.188750,2.801473,2.415522,3.430911,4.847659,5.565779,5.285290,3.806206,2.828543,3.852318,5.077546,4.604242,2.832423,2.262103,3.593299,7.526025,9.760296,8.096128,5.333536,5.072535,7.313138,9.655362,9.499221,6.744728,3.691899,1.840747,1.891287,3.443533,4.397498,4.153196,3.810641,6.069847,8.930825,9.993590,9.558155,9.724532,10.592735,11.862775,12.534666,13.608418,14.684046,16.761560,18.640972,20.322294,22.105537,23.390713,24.577832,24.966907,25.157946,25.550962,26.745964,28.042962,28.741968,29.442989,30.646037,31.151121,30.758249,30.267432,29.378678,29.691995,31.707392,31.824878,28.944460,26.366147,25.789946,27.315865,29.043910,29.174090,29.406411,30.840879,31.677501,30.916283,30.757231,32.300352,33.645650,31.793131,28.742800,26.394662,24.548721,22.004983,19.163451,17.024129,14.987021,12.452131,10.219462,9.189018,8.360800,7.134811,5.311055,3.789532,3.270246,4.353197,4.938388,4.425819,3.915491,4.707406,5.401563,4.397963,3.596606,2.197491,1.300619,1.505988,2.213598,2.423448,1.835536,-0.450141,-3.633582,-7.714791,-11.493771,-13.670522,-13.345050,-13.417356,-14.887444,-15.755317,-16.220980,-17.284437,-20.545691,-23.404747,-25.461611,-27.116287,-26.468780,-23.619096,-19.567242,-17.813221,-17.657042,-16.898711,-14.938233,-13.075617,-11.610870,-9.443998,-5.675010,-2.003913,0.869284,2.344573,3.721946,5.401393,6.582905,6.966473,5.152088,2.939739,1.829417,1.921111,3.214811,4.110506,3.508185,1.207838,-1.190549,-1.386985,-0.981484,-0.574056,0.035284,0.146526,1.559657,3.274662,3.791530,2.310246,1.030797,1.353170,2.777349,4.303322,6.131072,8.060586,9.791849,10.224845,9.959560,10.595977,12.934081,15.873856,19.015285,21.058354,20.703043,19.049338,17.797222,16.546676,14.997684,14.050228,14.104290,15.859853,16.616898,15.575408,14.435363,14.796745,15.659536,16.423715,15.789265,15.056166,14.724397,14.493941,13.764775,13.536882,14.110240,14.884829,14.960628,13.337618,12.915777,12.595084,10.675517,6.557057,3.739681,2.223368,2.608095,5.293842,7.680586,8.768306,6.856978,4.346580,3.037091,4.028486,5.120744,5.213842,5.507757,7.002464,8.697942,10.194167,11.291116,10.488764,7.787088,4.586065,2.585670,1.885880,2.186670,1.588016,0.889894,-0.207720,-1.604851,-2.801523,-3.697761,-5.093590,-6.389034,-6.884118,-5.578867,-2.573306,-1.167461,-2.061355,-2.955015,-2.448465,-0.341731,0.565163,1.172189,1.379325,2.286542,3.793817,4.101124,3.908437,3.715731,3.322980,0.730158,-2.662760,-4.755800,-5.048988,-5.542350,-7.535911,-9.429696,-9.423732,-9.118045,-9.712660,-11.507604,-13.302901,-13.698577,-13.094659,-13.391173,-15.388143,-17.485595,-18.483556,-19.082051,-20.381106,-20.080746,-17.980997,-15.481884,-13.783433,-13.785670,-14.888621,-16.992309,-17.496762,-15.902003,-13.508059,-11.214955,-9.422716,-8.531368,-9.440934,-10.951440,-12.362912,-13.275374,-13.888851,-14.103367,-14.218948,-13.235617,-12.853400,-11.972321,-11.692405,-11.813674,-10.236155,-6.159870,-2.584845,-0.511102,0.261334,-0.067560,-1.097808,-2.429434,-2.562460,-2.196911,-2.932809,-3.570178,-4.209040,-4.149419,-4.391336,-4.034816,-3.379879,-3.626549,-5.074848,-6.524798,-8.376420,-9.629738,-9.684772,-8.941544,-8.200075,-6.960387,-4.722502,-2.586439,-0.752220,1.080135,2.810604,3.139168,2.165807,1.190499,1.913226,3.533967,3.352703,1.569414,1.784082,2.996686,4.007209,5.315630,6.421933,6.426098,5.428106,2.927941,1.425584,0.321017,-1.085777,-1.794816,-1.606116,-1.419695,-2.135569,-4.153756,-5.974270,-6.697129,-6.322349,-5.349945,-6.779933,-8.812328,-9.547146,-8.984401,-8.624108,-8.466282,-9.110938,-10.058089,-10.607748,-9.959931,-9.514651,-10.171920,-10.731752,-10.294160,-8.959156,-7.926753,-8.196962,-9.269797,-10.245268,-11.023388,-11.304166,-11.887616,-11.573746,-8.762569,-4.254093,-1.348330,-0.845290,-0.644981,-0.547413,-1.352596,-2.760539,-1.871249,2.015264,5.698992,6.079928,3.858063,2.633391,4.105903,6.775594,7.842455,5.806482,3.467667,4.126005,5.281489,6.334116,6.383878,5.330772,5.574793,5.015936,3.454197,2.389572,2.622058,3.751651,4.978349,5.302148,4.323045,3.741039,4.056128,4.568309,6.077581,7.583944,8.787395,8.587935,6.885562,5.080278,3.272081,1.960972,1.446953,2.230024,4.110186,5.187440,5.761789,6.033235,5.501780,5.867426,8.230177,10.190036,11.647006,12.001091,10.452296,7.900623,6.346079,5.988668,6.628395,7.265266,5.199286,0.830462,-2.641200,-3.615694,-3.493012,-4.073147,-5.956092,-6.941839,-6.730380,-5.921706,-7.615808,-11.312678,-13.612307,-13.914684,-14.119800,-15.627645,-17.338208,-18.751479,-19.167446,-18.886097,-18.107422,-16.031409,-13.958044,-10.987316,-8.919211,-8.353716,-8.690819,-8.130505,-6.672759,-4.517568,-2.064917,0.385209,0.832825,0.277948,0.520592,2.760775,4.998512,5.833821,5.266719,3.897223,1.625350,-1.048880,-2.325450,-1.504341,1.514466,5.330990,7.645251,7.957269,7.667064,7.874656,7.280067,6.483318,7.084429,9.783424,12.280323,13.475150,14.267926,15.158676,15.747422,16.034188,13.918997,10.901876,8.882846,8.761935,9.439166,8.814566,5.888160,2.859975,1.630036,0.698371,-1.134993,-3.870030,-8.006710,-10.845007,-11.584891,-11.826335,-12.469309,-13.413783,-13.259729,-12.207117,-10.555915,-9.106095,-7.557624,-6.710471,-8.064606,-9.419996,-9.076609,-6.634413,-4.893375,-5.053462,-5.514640,-3.976876,-1.640136,-1.504386,-3.569590,-5.235714,-5.402723,-4.470580,-3.439251,-4.008699,-6.878886,-9.549778,-10.421335,-9.193522,-6.266299,-4.639629,-3.213473,-0.787793,3.037450,5.762296,7.686785,8.410957,9.234851,9.858509,10.481972,11.305280,12.028476,12.751602,14.174699,15.597810,17.020978,17.244247,15.867660,14.591260,14.215091,14.439199,12.263629,8.288424,5.313630,6.339294
1,3,-10.567973,-8.042136,-7.716148,-9.790002,-11.263694,-10.737219,-10.710571,-10.783746,-11.156738,-11.729543,-12.102156,-12.274571,-11.246784,-9.318789,-7.090583,-4.762160,-2.433516,0.595354,3.524455,4.753792,3.183368,-0.386811,-1.056741,2.573583,6.804164,9.835007,11.166117,12.897498,14.829153,16.261088,16.793306,16.725811,16.158607,16.791699,19.925090,24.258783,27.692784,29.027095,29.761720,30.396664,31.731928,34.067518,34.903436,34.439686,32.676270,31.513194,31.750459,32.488069,32.026026,31.564335,32.702998,35.142018,37.481397,38.821139,40.461246,42.401722,43.242568,43.283787,43.425381,42.867354,41.409707,38.852443,36.395565,34.739073,34.382970,32.527259,30.071942,28.017019,26.462494,25.708368,23.854642,20.501319,17.448400,14.995886,11.443779,7.192081,5.240793,5.489916,6.039452,4.289401,2.139765,1.190545,0.541742,-2.106644,-5.754611,-9.302158,-12.049284,-13.795990,-15.042274,-14.088135,-13.033574,-12.478589,-12.523180,-13.267347,-12.911089,-11.854406,-11.097298,-10.139765,-8.881806,-7.923421,-6.764611,-6.105375,-7.945714,-10.885627,-13.525115,-14.064178,-12.902816,-11.041029,-9.578818,-8.416183,-6.753125,-5.489644,-3.625740,-2.061415,-0.896668,0.868500,3.434087,7.800094,11.966520,13.933363,13.000623,11.768299,11.436391,12.504896,14.173816,15.243147,15.212890,14.383043,14.453605,14.224576,13.695953,13.767736,15.239924,15.812515,14.285508,11.058903,6.832697,4.306889,5.181478,7.856462,8.431841,6.307613,3.983776,3.060329,3.137271,3.314600,2.692314,3.270413,3.548894,5.027756,6.306997,6.486617,5.666613,4.546983,4.227727,3.308843,-1.109671,-7.527817,-11.545596,-12.563010,-13.780060,-16.496748,-19.713076,-20.929046,-20.244658,-19.359915,-21.274818,-23.889369,-25.303569,-26.417421,-27.830926,-28.844085,-29.356900,-30.569373,-31.581506,-31.893299,-31.404756,-30.815877,-30.526663,-29.537118,-28.747241,-28.857036,-28.566503,-26.675644,-23.984461,-22.192955,-22.101128,-21.208981,-21.016517,-21.223736,-22.230640,-21.837231,-19.643510,-17.549479,-16.655139,-16.260492,-15.465540,-13.870283,-10.574724,-6.778863,-4.582703,-3.886244,-4.189489,-4.692438,-5.395094,-6.097457,-7.499529,-9.801312,-12.202806,-13.904013,-13.604935,-12.805573,-10.905929,-9.206003,-8.505797,-8.905313,-8.304551,-6.603514,-5.502202,-4.000616,-1.598759,0.203368,1.305765,2.808430,2.811362,1.214559,-1.081980,-3.778257,-4.474271,-5.770026,-9.365522,-13.560760,-15.855741,-16.050468,-16.344941,-16.839161,-17.933130,-18.226849,-17.520319,-16.113542,-14.706518,-14.399250,-15.391738,-15.883984,-14.475989,-11.967754,-10.359281,-9.250571,-7.441624,-4.032444,-1.123030,-0.313385,1.296491,3.606596,4.916929,3.927488,3.338272,5.549280,9.460510,11.971960,12.583630,10.895518,8.107622,5.119941,3.732474,2.945218,2.458173,2.671337,3.584708,5.198284,6.612065,7.726048,8.340233,8.654616,8.569197,8.083973,6.998944,6.214107,5.129461,5.245003,6.360733,7.376647,9.192745,11.509024,12.825483,11.942119,10.858930,9.975915,9.693072,10.410398,13.427891,16.145549,17.563371,17.881353,19.499494,19.817791,18.636243,15.954846,13.173599,11.192499,11.411544,13.230730,14.450057,14.369521,13.989120,14.508850,14.328711,11.948698,8.968809,7.889042,9.409394,11.829862,13.150442,12.871133,10.991931,8.812834,7.033838,5.954941,7.176138,9.597429,10.318808,8.240273,4.161821,0.183449,-1.794848,-1.573071,-0.751224,-0.529312,-0.407337,0.114698,0.736788,0.458931,-1.618877,-3.296641,-2.674363,-1.652047,-0.729698,-1.207318,-1.984912,-3.162483,-3.440036,-2.917573,-1.195100,-0.072620,0.149863,-0.227656,0.294821,0.017287,-1.560259,-2.637824,-1.515411,1.706976,4.929333,6.451654,7.773937,8.996175,11.018366,12.640503,13.262584,13.784603,13.806556,13.528438,12.950245,12.871971,13.493613,13.515166,11.936624,11.457984,13.579240,16.800387,20.821421,23.342337,23.263130,22.483795,21.804327,20.824721,19.144972,18.565075,19.285025,20.704818,20.924447,19.443909,17.663197,16.182307,15.601234,15.919972,14.238516,11.556862,9.875003,8.792935,7.710652,5.728150,3.345423,0.962466,-0.720727,-1.604161,-1.587841,-1.471772,-1.655959,-2.840409,-4.325125,-6.110114,-7.595381,-10.780931,-13.566770,-14.452902,-13.739333,-13.026069,-13.313114,-13.000474,-11.988154,-12.876160,-14.964496,-14.853169,-12.542183,-10.531543,-10.021256,-9.611325,-8.901757,-8.092556,-7.383728,-8.075278,-10.367211,-12.759532,-13.652247,-13.845360,-15.438877,-17.032803,-17.327142,-16.221901,-15.717083,-16.312694,-18.308740,-19.405224,-19.302152,-17.799528,-15.897359,-13.595647,-11.494400,-8.893620,-6.493313,-4.893484,-3.694138,-3.095278,-3.596911,-5.499039,-7.001669,-6.804804,-5.008450,-1.612609,1.482712,3.377509,4.271779,4.865517,5.058719,5.251379,6.343495,8.835062,9.826075,10.316531,11.106426,12.295756,12.584516,11.472702,10.260312,11.347341,13.533785,14.219641,13.704904,13.189572,13.773641,13.957106,12.839966,11.022215,8.903852,6.984872,4.965272,1.945050,-0.175799,-1.497277,-3.219387,-5.342132,-6.165516,-6.089540,-7.614209,-9.139523,-10.565488,-13.092104,-15.719374,-18.347302,-21.875889,-24.305138,-24.235052,-23.365631,-24.096880,-25.528799,-23.861391,-18.994659,-15.128603,-14.763226,-16.098529,-15.134515,-11.471185,-8.908541,-9.746583,-11.685315,-12.324737,-12.164850,-11.705656,-10.047156,-7.189351,-4.832243,-3.975831,-4.320118,-4.265104,-3.610789,-2.457175,-1.904263,-1.452052,-1.400544,-0.549738,-0.099635,-1.850236,-3.801540,-4.253548,-3.806261,-5.359676,-7.513796,-6.868620,-2.624146,1.419624,3.362691,4.105056,4.746719,5.187680,6.927941,8.767503,8.906365,8.944529,9.481995,10.118766,8.954841,7.490223,6.024912,5.158909,3.992217,3.324836,3.056769,3.788016,4.618580,5.548462,7.177664,8.906188,10.334036,12.361210,15.087713,17.413547,19.038713,19.763215,19.887054,19.110234,17.332757,14.754625,13.975842,14.396410,14.816333,14.535613,14.454253,13.872256,12.889627,11.006367,7.822481,5.837972,6.452843,8.067099,7.580742,5.793777,4.106207,3.618036,4.129269,3.939910,1.649962,-0.840570,-2.131682,-0.723370,-0.015628,-1.008453,-4.001840,-5.295784,-5.990280,-6.585324,-6.680910,-5.677034,-4.873691,-5.670875,-6.968581,-8.866804,-10.165538,-10.964779,-10.864520,-10.164756,-9.765481,-9.866690,-10.168376,-8.970534,-9.173158,-9.476242,-8.779780,-7.883765,-8.588191,-10.493052,-11.698341,-11.604053,-9.410179,-5.916715,-2.723653,-1.230986,-2.838708,-4.746811,-5.155289,-4.964135,-3.973341,-3.882900,-3.792805,-1.803049,0.286375,-0.524524,-4.135739,-8.047263,-9.759089,-8.471207,-5.683611,-2.796293,0.490755,3.877542,6.264075,7.250363,6.136413,5.022234,5.707834,7.493221,8.378405,7.763393,5.848194,3.132817,1.917270,1.901562,1.785702,0.569698,-0.746439,-2.862703,-4.679082,-5.795569,-7.312154,-7.528829,-6.945583,-6.262407,-6.179293,-5.396230,-4.713209,-5.230222,-7.647257,-8.664306,-6.981359,-6.498407,-8.615438,-11.032445,-10.349416,-7.966342,-6.883213,-6.500019,-6.816750,-9.133396,-12.249946,-13.266392,-12.482721,-11.798925,-10.814993,-10.430914,-11.546679,-12.562276,-11.977695,-10.592927,-8.807960,-6.122784,-1.737388,2.148239,2.834106,1.320225,0.706606,3.993261,9.280199,14.067432,17.454970,18.842825,19.931007,21.819527,24.608396,26.497625,26.587225,25.677207,24.567582,25.358361,27.349555,29.441175,29.633232,26.525738,23.918703,22.912138,22.906056,22.400466,21.595381,21.590811,22.886767,23.783261,22.880305,21.677908,21.676083,22.974841,24.474192,24.674149,23.574723,22.175924,20.277764,19.080255,18.083407,16.387233,13.491742,8.996948,4.502860,2.109490,1.916849,1.524949,-0.666199,-3.956584,-5.746194,-6.735019,-9.223047,-13.310267,-17.596667,-21.182237,-24.266966,-26.550841,-28.633853,-30.115989,-30.397239,-30.677592,-30.557036,-30.235560,-30.013154,-29.089807,-28.165506,-27.540243,-27.214004,-27.186781,-28.658561,-31.029333,-32.499088,-31.467814,-29.835501,-28.602137,-28.167712,-27.932215,-27.295636,-25.857964,-24.819189,-23.679300,-22.638287,-21.996138,-21.952845,-22.108396,-21.262781,-19.115991,-16.168014,-13.618841,-11.268461,-10.616866,-11.464043,-10.909985,-9.354681,-8.498120,-8.740295,-9.181194,-8.320808,-4.359128,-0.196144,0.868154,-1.466227,-4.199275,-5.330983,-4.061341,-2.190340,-0.917971,-1.044225,-1.469093,-0.092567,1.185362,0.464702,-1.654538,-3.172350,-2.888725,-0.703656,1.882866,2.770849,1.360300,0.351228,0.943639,3.337542,6.332945,8.429853,9.828276,9.028219,6.929690,4.332696,2.437244,0.743340,-2.249009,-6.839796,-10.729016,-12.616661,-12.602727,-12.687206,-13.570093,-14.351383,-14.731068,-16.109146,-16.985608,-18.660452,-20.433670,-20.505260,-19.075214,-16.743530,-15.310203,-14.675227,-13.438599,-13.200315,-13.960370,-14.518761,-12.775485,-11.130537,-8.883915,-7.635614,-6.285633,-5.833967,-6.080616,-7.225574,-8.468841,-8.610415,-7.750292,-6.888471,-5.524950,-6.259728,-7.592803,-6.424174,-3.753839,-0.881798,1.891949,5.167405,8.944568,12.123440,14.304020,16.386309,19.170306,21.656010,23.443421,23.632538,21.723361,20.815887,20.910117,22.406047,23.103676,23.303003,23.804026,25.006742,25.911148,24.417242,21.725021,20.034482,20.845623,21.958438,22.772926,22.589081,20.906901,20.526381,20.847516,21.270301,21.794734,22.520807,22.948516,22.277857,22.708822,24.841407,28.075605,30.511411,30.948819,29.987820,28.728410,27.670581,26.514326,25.659637,25.206508,25.154930,24.104896,21.856398,18.809427,16.663975,14.720033,12.577593,9.936646,5.597182,2.659192,1.222666,0.287596,0.853969,2.221778,4.291010,3.861656,2.633706,3.307147,4.881970,4.758163,3.035714,2.814612,5.094845,8.576401,10.559268,9.843434,8.928886,8.215611,8.403598,8.092832,7.383301,6.874990,7.667888,9.161980,8.957252,7.553690,6.051280,3.950008,1.449859,0.250819,1.352873,5.556005,10.060202,11.365446,9.771725,7.979020,7.187318,7.596602,8.406856,7.218064,4.730209,3.243276,3.857248,5.272109,5.887840,5.904426,8.421850,12.040094,14.059141,14.778974,15.599575,16.120926,15.643010,14.465809,15.089305,16.913479,18.938314,20.363792,22.389894,25.116601,27.443895,28.771757,28.500169,27.629111,26.658565,26.188512,25.018932,22.949807,21.081117,20.212843,19.244965,17.777464,15.510320,13.743515,13.377027,13.510838,11.944928,8.879277,5.413865,5.048671,6.483677,6.918862,5.154207,2.889690,1.825292,0.860993,-0.803227,-3.067389,-5.231513,-5.995619,-6.459727,-9.123858,-11.788032,-13.352268,-12.216588,-9.881012,-10.145560,-11.910252,-13.775109,-12.440151,-10.005398,-9.170870,-11.536588,-14.602572,-15.268842,-14.635418,-15.202321,-18.569570,-23.237186,-25.905189,-26.673598,-26.242435,-25.011717,-23.381467,-21.751702,-20.022444,-19.293712,-19.365526,-20.137905,-20.910868,-19.684436,-17.058627,-15.733462,-14.008959,-10.685137,-6.762017,-5.039616,-6.317954,-7.897049,-8.576921,-8.757588,-9.039069,-9.721383,-8.704547,-4.688580,-0.073501,2.940673,3.553923,1.366232,-0.022419,0.187953,1.497331,5.105697,8.613033,8.919323,7.624549,6.528695,5.831742,4.833676,3.634478,3.534133,2.732624,0.829936,-0.273949,-0.879045,-0.985369,-0.692936,-0.601762,-1.211862,-1.723251,-3.335945,-5.649957,-7.965304,-10.781999,-11.400056,-10.219491,-7.940317,-6.762547,-5.786197,-4.611279,-5.037806,-6.965793,-9.595252,-12.126195,-14.658637,-17.692588,-19.828062,-19.865071,-19.403627,-19.343741,-20.585426,-21.628692,-22.073551,-22.420015,-22.768093,-21.217797,-19.769138,-20.122125,-21.576769,-22.433079,-21.891067,-21.350740,-20.812108,-21.575182,-23.539969,-24.906478,-24.974719,-23.744699,-22.616426,-21.789909,-20.965156,-19.542174,-17.620970,-15.801552,-15.483927,-14.968101,-13.954081,-11.041874,-6.631486,-3.722922,-4.216188,-3.911291,-1.308235,2.492974,4.192331,3.589833,4.085473,6.279248,9.471153,10.261185,7.049340,3.335614,0.720004,0.202506,0.383119,0.761838,-0.961338,-2.286412,-3.313386,-4.042261,-4.873041,-5.505725,-6.240316,-6.376815,-6.115222,-5.055538,-5.297764,-7.041901,-8.687947,-10.735904,-12.985771,-14.937547,-16.191233,-16.846826,-17.304326,-18.763732,-19.225043,-17.288256,-14.853370,-15.120383,-18.289293,-21.460097,-21.232793,-19.407379,-18.983850,-20.762205,-21.142440,-20.724551,-20.508535,-21.594387,-22.482105,-23.071683,-23.163118,-24.156405,-23.451538,-22.548514,-21.547327,-20.747973,-19.650444,-17.354737,-13.560846,-11.068763,-10.078484,-8.990003,-7.103312,-4.718405,-3.135276,-2.153918,0.425677,5.803514,11.379603,14.253950,15.726562,16.897448,16.366615,13.434072,10.299827,10.263887,10.926262,10.786960,11.945990,13.303361,13.559081,13.413160,12.865607,13.316432,13.665644,14.913253,16.159269,18.103701,17.646559,14.487855,12.227597,12.365797,14.902465,16.637611,16.171247,14.803383,16.334030,19.863199,21.190902,19.817150,17.241953,15.265325,15.087276,16.607817,17.026962,15.044721,13.561107,12.576132,11.889807,11.002146,10.413161,10.222864,9.531267,8.038384,5.944227,4.948809,3.352142,1.354240,0.455116,0.254783,-0.446746,-1.649458,-0.653339,3.841624,8.335445,10.028137,9.719714,8.410189,6.199577,4.387891,4.875145,5.661354,5.146530,4.530689,5.813845,7.196011,6.777201,4.957432,3.636715,4.115067,4.692502,3.569033,2.344677,1.719447,0.593358,-0.733575,-1.261338,-0.689915,0.780709,3.250548,6.719617,10.787932,14.555507,16.622358,17.288500,16.253947,15.318716,15.582821,15.846278,16.109103,16.171309,16.532914,17.193932,17.254379,16.514270,17.073621,18.332448,19.090766,19.948591,21.305938,21.962824,21.519263,20.275272,18.830867,17.886063,17.240876,16.595323,16.449418,16.603178,15.956619,14.309757,13.462608,13.515188,13.167512,12.419598,11.171461,10.123117,10.874582,11.225873,11.277005,8.927996,6.178860,4.329615,5.180277,5.930862,4.781386,3.531865,4.282317,4.032757,0.783201,-3.366333,-7.115830,-11.465273,-16.214645,-20.963930,-24.013112,-23.762174,-22.111100,-20.359872,-18.908475,-18.056892,-18.805106,-18.853100,-17.800858,-16.648364,-17.195600,-17.642550,-17.089197,-16.435525,-16.481516,-15.627155,-13.972423,-12.717305,-12.861783,-13.905841,-15.849462,-16.492629,-15.635325,-14.777533,-14.519236,-14.860418,-14.301061,-12.441149,-10.180664,-9.219589,-8.657908,-6.695603,-3.232657,-0.769054,-0.904776,-1.339806,-0.674127,0.592278,1.859427,3.427337,6.396024,10.165506,11.435800,11.306924,10.778894,12.151729,15.125445,17.600059,18.775590,18.152053,16.929468,17.607851,19.387219,22.067590,21.548982,20.131412,21.114897,24.299455,26.385104,25.271860,24.259743,24.548768,25.338955,24.730320,22.322881,18.816656,15.511663,13.007919,11.105442,9.304250,6.304360,3.105791,0.408560,-1.287314,-2.981815,-4.574923,-4.866621,-5.456892,-6.845717,-8.933077,-10.618956,-11.503335,-12.586196,-13.167520,-11.347290,-7.825488,-4.902094,-4.177092,-4.550463,-4.922188,-6.392249,-8.860628,-9.727306,-10.992266,-13.555488,-17.216955,-20.176647,-22.334546,-24.590635,-27.544893,-29.897303,-30.547846,-30.696503,-30.543256,-29.088085,-26.830973,-23.971900,-23.010847,-23.747797,-25.382729,-25.715625,-23.646466,-20.375233,-18.801908,-18.226470,-15.848901,-10.369182,-4.287294,-1.503218,-2.216934,-3.628423,-4.437666,-3.144644,0.250663,4.148273,6.248207,5.350484,3.255123,1.862144,2.071566,2.283408,1.997691,1.214434,0.733657,0.655378,1.079619,2.506398,3.435736,4.867652,8.302166,12.239298,14.279068,12.321495,10.466601,10.514404,13.364925,16.718184,17.874201,16.132997,13.094590,10.959002,9.726253,8.096363,5.069352,3.045241,2.424050,2.905799,2.390509,0.978201,0.868894,-0.337390,-3.840631,-7.340808,-8.137902,-7.331890,-6.422753,-6.010469,-5.695019,-5.976380,-5.654533,-3.129456,0.198872
1,3,4.897536,8.744364,11.391241,11.638163,10.785128,8.432134,5.279177,3.426256,3.373367,4.520509,5.367679,5.314874,4.962092,4.909329,5.256585,6.203855,5.851139,3.498432,2.245733,3.493038,4.840347,4.087655,1.434961,-1.517737,-3.570444,-3.023160,-2.075889,-3.028632,-4.581393,-5.434173,-5.786976,-7.139803,-10.092657,-12.645541,-13.098457,-12.851407,-14.104393,-17.857419,-21.510486,-22.263596,-21.416753,-21.769959,-23.523215,-24.576524,-23.729889,-20.383311,-16.836794,-16.490338,-19.243947,-21.097623,-20.451368,-18.405185,-17.059074,-17.913040,-20.367083,-22.621206,-23.575411,-24.229701,-25.584077,-26.038542,-24.393097,-23.647746,-26.002489,-28.357329,-28.012268,-25.867308,-24.322451,-25.077699,-27.233055,-28.288519,-26.744095,-25.099783,-24.155587,-23.911507,-23.167547,-19.823707,-14.779990,-9.736397,-6.692931,-4.849593,-2.206386,0.036690,3.179632,6.022438,8.965106,11.607636,14.450024,15.492270,14.534371,13.676325,15.318132,17.559789,17.101294,15.342647,16.483844,19.124885,21.565767,23.106490,23.447051,23.387449,23.627683,24.567749,25.207648,25.947377,26.086935,27.026320,28.865531,29.004566,27.443424,26.282102,25.320600,24.058916,22.897048,21.034995,19.772756,19.810329,19.347712,18.384904,17.421904,16.158710,14.095321,14.231735,15.867951,18.803967,20.639782,19.975395,16.510805,12.846009,10.081007,7.715797,6.450378,6.584749,6.818907,5.752853,3.086585,1.220100,0.353399,0.286480,0.019341,-1.048018,-1.515600,-1.583404,-0.651433,-1.119687,-2.088169,-3.056878,-3.425816,-4.794984,-6.664384,-7.634017,-7.303883,-5.973983,-6.544320,-10.614894,-15.485705,-15.956756,-13.528047,-12.399579,-13.071353,-13.243371,-10.815632,-5.588139,-0.960892,1.666108,2.292860,3.519363,4.245616,3.071618,1.297368,1.322866,2.248110,2.773100,2.897835,3.322314,4.346537,4.770501,4.194208,3.317655,3.240843,4.163770,4.986435,4.908839,5.030980,6.252858,8.874472,10.495821,10.516905,9.437723,8.058275,5.778559,3.898577,2.818326,2.237806,1.957017,1.675959,1.294631,-0.286968,-4.368838,-9.050980,-11.933393,-12.216078,-11.599037,-12.482268,-14.165772,-16.349550,-17.933602,-18.817928,-19.802529,-21.187405,-24.172555,-26.657981,-28.443683,-28.729660,-27.015912,-24.502441,-22.889246,-21.776327,-20.863685,-19.751319,-18.839230,-18.427417,-19.115881,-20.804622,-22.893639,-23.582933,-21.972504,-19.962351,-18.452475,-18.742876,-20.533553,-21.724506,-22.115736,-22.607241,-22.699023,-21.491081,-19.783414,-18.676023,-18.168907,-17.462066,-16.455500,-14.649208,-13.243191,-11.337448,-9.631979,-7.726784,-5.021861,-2.217212,0.887165,3.091270,4.895102,7.398664,9.401954,11.104973,11.407722,10.410202,10.312411,12.014352,14.616024,16.417428,16.618564,15.019433,13.520035,15.420371,19.420442,23.920247,26.119788,26.719064,26.818077,26.016827,24.615315,25.013541,26.011506,27.509210,28.206654,28.303839,28.300765,27.697433,26.693844,25.689998,25.985895,25.481538,24.176926,22.272060,20.066940,16.861568,14.555945,14.350070,14.443945,13.137571,9.730948,7.124077,4.916959,3.409595,1.401985,-0.805869,-1.813967,-0.422307,1.369110,2.760287,4.951223,6.541920,8.532379,9.322601,8.312586,7.002336,7.091852,8.281134,8.270184,7.259003,5.447592,4.235952,3.624084,2.411989,0.699668,0.787123,0.374354,-0.538636,-1.851848,-1.865279,-1.278929,-0.492796,0.693121,3.078824,5.564314,7.649591,10.434659,12.319517,13.904168,14.988613,15.972853,16.856890,16.640725,16.724361,16.107798,15.091038,15.674084,18.756935,19.839596,16.422066,11.904348,9.986444,11.168355,12.550084,12.031631,11.313000,11.194192,12.375210,11.756054,9.036728,5.917233,4.097571,3.877745,4.857758,6.537610,8.117304,9.996844,10.376231,9.955467,7.434555,4.113498,2.592298,1.670957,0.749479,-1.072135,-2.993881,-3.715756,-3.737758,-4.459884,-5.682132,-6.504497,-6.226978,-5.749570,-5.372272,-5.795080,-6.317991,-8.441001,-11.064107,-11.987307,-12.210596,-11.133971,-9.157429,-7.780967,-8.604579,-10.828264,-12.152018,-11.675836,-11.499714,-13.623650,-17.047639,-18.671678,-18.095761,-15.519886,-13.044048,-12.068243,-11.492466,-10.716715,-10.040983,-10.565267,-12.089563,-12.813866,-12.138171,-11.962474,-13.086770,-14.411055,-13.735324,-12.259572,-11.083794,-12.507986,-15.132142,-15.556257,-14.380327,-14.804346,-16.428308,-17.152210,-15.976046,-14.499809,-13.123496,-11.947100,-11.470616,-11.794039,-12.017362,-11.740581,-11.863690,-12.286682,-11.809553,-10.032296,-8.054905,-7.577375,-8.999700,-11.121874,-13.543890,-15.465742,-17.287425,-18.408932,-18.630258,-17.651395,-16.372337,-14.193078,-12.113613,-11.633933,-12.254034,-12.373907,-11.493548,-10.012949,-8.132103,-7.251005,-6.169647,-6.888023,-9.006126,-11.823948,-13.641485,-12.458728,-10.275671,-10.792307,-13.108628,-15.024629,-16.840302,-18.355641,-18.770638,-19.385286,-20.399578,-20.913508,-18.827067,-16.340250,-14.653049,-13.965457,-12.977468,-12.189072,-10.800265,-10.711039,-11.521385,-12.931299,-14.040771,-14.249796,-14.758366,-14.866474,-14.274112,-14.781274,-15.587953,-15.894142,-15.299833,-13.005019,-10.209694,-8.613850,-8.517480,-9.120578,-9.323135,-8.625147,-7.026604,-6.727501,-6.427830,-4.627585,-2.626758,-1.825344,-1.523335,-0.220724,1.482495,3.486330,4.890785,5.895870,7.001589,8.607949,9.714957,10.422620,10.030943,9.439933,8.649597,7.859940,8.470969,9.582690,9.295109,8.308232,8.222066,9.736615,11.751885,13.367884,13.484616,14.002086,15.420301,17.539267,19.358987,20.379469,20.900717,20.922736,20.545532,20.169109,20.193473,19.618629,16.244581,12.671334,10.798893,10.527262,9.756446,9.586449,9.717276,9.948931,8.981418,7.914741,7.348903,7.083910,8.719764,11.656469,13.094029,11.632447,8.871727,9.411872,13.552884,16.394768,13.937526,9.581160,6.525674,5.371070,4.617351,3.764518,2.812575,1.661524,1.311366,2.462104,3.613739,4.266273,3.119708,0.974045,-1.270715,-1.114570,-0.157519,0.800439,-0.440695,-2.080920,-2.820237,-2.558644,-1.496140,-0.132726,0.731598,0.896833,-0.237022,-0.269966,1.297999,4.366874,7.736658,10.107350,9.378949,7.051454,5.524864,6.199178,9.274394,12.750512,13.927528,12.305443,10.684252,10.263956,11.244551,12.726035,14.008405,16.191660,18.775796,20.760811,21.346702,22.533465,23.621098,24.309597,23.698958,23.489178,23.580254,24.072181,23.864956,25.158573,27.653030,28.048321,26.144443,24.041390,22.739157,21.237741,18.237135,15.237335,12.338335,9.140130,5.242715,3.346083,1.950229,-0.344853,-2.939168,-7.132724,-11.825527,-15.317582,-16.008897,-13.999478,-12.089331,-11.578464,-12.166884,-13.154598,-14.841613,-16.427937,-16.913576,-16.498539,-15.782833,-15.366467,-15.849447,-16.831782,-16.613481,-14.494551,-11.075001,-9.454840,-10.234075,-11.712716,-11.490772,-9.168251,-7.945163,-6.721516,-6.297320,-6.972585,-8.447318,-8.921531,-7.995233,-5.868433,-3.641142,-2.513369,-2.885123,-5.356417,-7.227258,-6.497659,-4.967629,-3.237178,-1.506318,1.724942,5.256590,7.188616,6.421008,6.553757,8.986850,12.720277,15.954026,16.688087,14.922448,13.857097,13.392023,13.327214,13.462659,13.098347,13.134264,15.270401,17.106744,16.643281,16.880002,17.416893,18.253943,18.491139,18.428469,18.365922,18.903484,19.041143,17.778887,16.416703,17.354579,21.092503,24.130461,24.368442,22.606431,21.444418,21.682389,22.420330,21.758231,20.296077,18.333856,16.971554,15.809160,14.946660,13.484041,10.921291,7.558395,5.595342,3.432119,0.968711,-1.194893,-1.758707,-1.922744,-2.087016,-2.851537,-2.416320,-1.281378,-2.646724,-6.512371,-9.978332,-11.444620,-12.111248,-12.978228,-13.745575,-15.013300,-16.381418,-17.949939,-19.218879,-18.988249,-18.458062,-18.028331,-16.399069,-14.470289,-12.742004,-11.314225,-9.586966,-7.860239,-8.034057,-8.508433,-8.783378,-8.258906,-7.035029,-5.611758,-5.389108,-6.267088,-8.245713,-8.524994,-6.504943,-3.785571,-1.566892,-1.048918,-2.531658,-4.915127,-6.199335,-4.984293,-1.070015,1.343490,1.056209,0.068131,0.479245,2.189540,3.999004,5.307627,5.915397,5.922304,6.228337,6.333485,5.837737,4.341083,1.643513,0.745016,1.245582,0.345200,-1.456138,-1.958445,-0.761728,-0.665999,-2.571266,-5.877539,-7.684828,-7.393142,-6.402491,-6.912883,-8.824328,-9.836834,-9.650411,-8.365066,-7.080810,-7.097649,-9.515593,-13.434650,-18.554828,-22.676135,-24.598579,-25.322168,-25.346909,-24.172810,-22.799878,-21.928121,-21.157546,-19.488160,-18.119970,-18.552982,-21.387204,-24.622642,-25.359303,-25.597191,-26.136315,-26.876680,-27.618291,-29.161156,-31.705278,-33.950664,-35.797319,-36.845249,-36.394458,-33.444951,-28.896734,-24.649811,-22.004187,-20.059866,-17.316852,-13.975149,-11.134762,-8.695695,-6.557951,-5.021533,-2.386446,0.547307,3.079724,4.010800,3.940534,4.568922,5.395962,4.321651,2.245987,0.968967,3.090590,7.410854,9.429756,10.547295,11.563470,11.878279,11.891721,12.603795,14.714499,17.523834,18.531797,19.138390,19.443610,18.847459,17.549936,16.451040,15.550773,15.149133,15.046123,15.341742,16.335991,16.028870,13.820382,10.910526,8.599304,7.286718,5.472769,3.157459,1.640789,1.422761,2.703378,2.482642,3.060554,4.337119,5.912337,5.686212,4.958747,3.229944,1.599808,2.768340,6.735545,10.801427,12.665988,11.229232,9.091165,7.151788,5.711108,3.669128,1.725852,1.581286,3.635433,4.088299,1.539889,-3.409792,-7.960739,-10.712946,-11.166409,-11.021121,-11.377077,-11.534270,-9.892695,-7.752346,-6.213217,-6.575300,-7.038591,-8.003081,-8.368764,-8.835634,-9.403684,-8.872905,-6.643292,-3.514837,-0.687532,0.338630,1.063657,1.987557,4.710337,6.332006,6.252572,5.272042,3.290427,2.007733,0.423969,-0.060855,-0.846731,-1.033650,0.078397,2.189419,3.499425,2.908425,4.216429,7.923446,11.129485,11.434556,11.038670,10.641836,11.044064,11.645365,11.445749,10.245226,10.243807,11.441502,13.638323,14.434279,14.929383,14.123644,12.917074,11.609685,9.601487,8.292492,8.182711,8.572156,7.860839,5.548771,2.335964,0.322430,0.208181,1.093230,1.277588,1.161268,2.844282,4.726643,4.108362,2.189454,1.169929,1.149802,1.029086,0.007792,-2.814066,-5.036474,-3.159421,1.517109,7.393127,10.968648,10.143685,7.518251,5.192360,2.866026,-0.260737,-2.787916,-3.515496,-2.943465,-2.371807,-3.900508,-7.829555,-12.158932,-13.588627,-11.818624,-10.148908,-10.979467,-13.610284,-14.441345,-12.972636,-11.704141,-11.735847,-11.167737,-9.799798,-7.732015,-4.064371,-0.796853,0.670555,0.837868,2.005102,4.272271,5.339391,4.206477,1.373545,0.240610,1.007687,0.474793,-1.758058,-4.190850,-5.023567,-3.956193,-3.288713,-1.321111,1.946629,4.714523,5.482586,4.350834,2.419284,1.187951,-0.043149,-1.174000,-2.104585,-1.634890,-0.064897,1.105410,1.476046,0.847027,0.418371,0.790092,1.762207,1.734733,0.507685,-0.718920,-1.345067,-0.370738,0.804082,1.779410,2.455262,2.231653,1.308602,-0.513878,-2.135768,-1.857053,-1.077717,-0.897743,-1.517115,-2.735817,-4.453833,-6.771145,-9.587740,-10.103599,-8.518707,-6.633047,-5.346604,-4.259361,-3.371303,-1.982413,0.007326,1.697928,2.589411,2.381789,2.675080,3.569299,4.764462,5.060584,3.457682,0.555772,-3.445131,-6.545011,-7.943852,-7.541639,-6.738356,-5.633987,-4.028517,-3.021930,-1.114211,1.294656,3.504685,4.315893,5.028293,6.341903,6.856736,7.572808,9.690134,12.908729,12.628607,7.449784,2.772273,2.196091,4.721251,6.847769,5.975657,5.604932,6.435607,7.367696,6.301214,4.036175,2.672593,2.910481,3.549853,5.490724,6.533106,5.977014,4.222461,1.669460,0.118025,-0.531832,-1.480097,-2.026757,-2.171800,-1.915212,-1.956981,-2.797095,-4.435540,-6.472306,-8.007378,-9.440746,-9.372397,-8.202319,-8.530502,-10.056932,-13.081599,-16.804491,-19.525597,-19.944905,-17.562406,-13.978087,-11.691939,-13.003951,-15.214111,-15.222411,-13.028839,-10.333386,-10.236042,-12.836797,-15.535642,-18.332567,-21.027563,-22.620620,-23.011731,-23.000885,-23.788075,-24.073292,-23.756527,-25.437773,-27.517022,-28.094265,-27.469495,-27.042705,-27.013888,-26.783036,-24.550142,-21.415200,-20.378203,-21.739145,-22.398019,-19.554820,-13.609542,-8.562180,-6.212727,-5.461179,-3.007530,0.548223,5.006086,8.366063,9.928159,11.892376,14.958720,17.927192,20.197798,21.770539,24.345419,26.522441,27.701606,27.882917,27.966376,28.151985,28.239745,28.729657,28.221723,27.715943,28.612318,31.510849,33.811534,34.614375,33.419370,32.626520,30.835822,29.547277,28.260882,28.276635,29.394536,30.114582,29.736770,27.061097,23.187561,20.416158,19.146885,18.379738,15.914713,11.951805,8.191011,5.132325,3.275742,4.321256,5.568862,5.718554,3.970325,1.024169,-0.319920,-0.761951,-0.701930,-0.939866,-1.675766,-3.309638,-4.741492,-5.071336,-3.099179,-1.125031,0.051098,-0.870802,-0.790742,0.691269,2.175219,1.961096,1.148889,0.238585,0.430173,1.623641,3.318974,5.916159,8.115184,8.116034,7.618695,7.023153,6.629392,6.637397,6.947153,6.258644,4.571854,2.386766,0.603363,-0.078371,-0.758455,-0.836906,-0.413743,-0.688983,-0.762647,0.365248,2.494680,3.725631,4.358080,5.192006,6.327389,8.264207,11.002438,13.242061,14.083052,13.425390,12.669051,13.714011,15.060248,14.207736,12.656451,10.806368,9.257462,9.409708,9.163079,7.517548,5.973090,6.329676,8.387280,9.145874,9.105429,8.765917,9.027308,8.389574,6.852684,4.716608,2.681317,1.146778,-0.287039,-0.920166,-1.652635,-3.684478,-5.615729,-6.546421,-6.876587,-9.206262,-12.235479,-15.064274,-17.292682,-19.320738,-20.148479,-18.475941,-17.203161,-18.030176,-20.057024,-22.583742,-25.210370,-27.736946,-31.563509,-35.290100,-36.916758,-36.843524,-37.270438,-37.597543,-35.824880,-33.752492,-32.380420,-32.908708,-33.637400,-34.666539,-35.296170,-35.426338,-35.257088,-34.788465,-33.120516,-30.853287,-28.186826,-25.721179,-22.356395,-20.192521,-20.129608,-21.367703,-22.106857,-21.147119,-17.988541,-14.431173,-12.675067,-12.120275,-11.366849,-9.214842,-6.364308,-3.715300,-3.167872,-4.922079,-7.077977,-6.935621,-4.395068,-0.956374,1.180405,2.315209,3.047982,5.278665,8.307198,10.133522,10.257577,9.479302,9.698637,9.715520,9.229888,7.641680,7.050833,6.157282,5.560964,3.961814,3.159768,3.054760,2.246723,1.435591,0.321297,-2.396226,-5.117047,-6.041235,-6.568857,-7.299985,-10.834689,-15.073038,-16.515105,-14.260961,-10.010678,-7.664330,-8.421989,-11.083731,-12.649628,-11.619756,-8.794192,-6.573010,-4.356287,-3.144101,-2.236530,-0.833651,1.164456,2.857712,3.746037,4.429351,4.507573,3.780620,3.048411,2.810863,2.367892,2.419415,4.665348,7.305604,10.340099,13.068747,16.391460,19.308152,22.318734,23.223119,23.721216,24.212937,25.098190,27.276886,30.048933,32.014239,32.972712,33.924257,34.868783,34.906193,33.736394,32.059290,30.774784,29.782780,28.883182,29.575890,33.360806,36.037832,34.106868,30.267812,28.420566,28.465026,29.701092,30.128659,30.247626,30.157888,30.159340,29.851878,29.135395,29.609786,29.174943,28.230760,27.777127,28.113936,28.541078,28.158443,26.765920,24.563397,22.650764,21.427907,21.094714,20.851071,20.496864,19.231977,16.956296,13.669704,10.272084,7.063319,4.943292,4.211882,4.068972,4.314442,3.748171,1.470037,-2.020080,-6.122303,-9.836756,-11.963560,-12.702842,-11.954724,-10.419334,-9.996796,-11.087238,-12.290786,-11.707569,-9.137716,-7.881354,-9.138614,-13.009626,-17.594522,-19.793433,-21.106490,-22.633828,-24.075578,-25.331876,-26.602857,-27.088654,-26.089405,-24.005246,-22.436314,-21.982747,-21.844683,-22.722262,-24.015622,-24.824905,-25.050251,-24.091801,-21.549699,-19.824086,-18.215106,-18.522903,-20.447622,-21.689408,-20.048406,-15.524764,-11.818628,-11.130146
1,3,-4.674676,-4.158565,-2.841813,-2.424411,-2.006348,-1.887616,-1.968205,-1.448105,-0.027306,2.394201,4.016424,4.639375,5.363061,8.387491,11.712676,12.438623,11.265342,10.392841,10.221130,10.850216,11.280108,11.710815,12.242345,13.474705,15.707905,18.041952,20.576855,22.112620,23.249255,22.486769,20.225168,17.664461,16.604653,16.345753,18.087767,20.730702,22.874566,23.019364,23.265103,25.211790,26.859430,26.408031,23.157597,20.108136,18.359652,18.512151,17.665639,15.920122,15.375603,15.232090,14.789585,13.448095,11.007623,9.368176,9.329755,9.992367,10.256015,9.620703,9.386435,9.553215,9.421045,6.989930,4.259873,2.730876,2.402943,2.576076,2.650278,1.525551,-0.698102,-2.120679,-2.742179,-1.562598,-0.981937,-2.000193,-4.017365,-5.533451,-5.448451,-4.962364,-6.775189,-8.686926,-7.997574,-6.307132,-4.715602,-5.122982,-3.729274,0.565523,5.761408,8.658379,8.856437,8.655580,9.055807,9.557116,9.359506,9.862975,10.867522,12.773144,14.579839,15.387605,14.196439,11.506339,9.917301,9.929323,10.942402,11.656534,12.271715,12.487943,12.005212,10.523520,9.042863,8.763235,9.784633,11.107051,13.730486,16.654932,18.680384,19.506837,19.934285,20.062724,19.492148,19.022550,19.653924,21.086265,22.819567,23.553823,21.489025,20.125169,19.162247,18.600251,15.839175,13.279012,10.919754,9.061394,8.903923,10.347335,11.691621,10.636773,7.882784,3.029644,-1.622655,-4.774121,-5.124763,-3.174590,-0.923611,1.628166,3.580730,4.334073,3.788186,2.743058,1.898681,1.955043,3.712137,4.469951,3.428475,2.587700,2.747615,2.608210,2.069474,1.431397,-0.206032,-1.342824,-2.178989,-1.514538,-1.449483,-2.483835,-2.817604,-2.350802,-1.683440,-2.615529,-2.247082,-1.878109,-0.708622,1.561366,1.731845,2.102803,4.574228,8.046107,11.318429,14.091183,17.264354,20.737933,23.411906,23.486262,22.560987,22.036070,21.511499,20.187261,17.763343,15.239734,13.016421,11.293391,10.870632,12.448131,15.225876,18.103855,19.782054,20.060461,19.139064,17.417850,15.896807,14.675922,14.655182,14.934574,14.514087,13.893708,13.773424,12.853223,11.733092,11.013018,9.992990,7.672995,5.453020,4.333053,4.413082,3.793095,3.273078,4.053021,6.732911,7.212736,3.592483,1.372141,2.151698,3.331141,1.810460,-0.510358,-2.731324,-3.652451,-2.373749,-0.095230,2.283094,2.961212,2.139113,0.716785,0.294219,1.171401,0.848323,-2.375028,-4.298662,-5.422590,-6.346821,-8.671367,-11.096238,-12.621444,-13.246996,-13.772902,-14.899174,-15.125821,-15.452852,-16.280277,-17.708106,-19.236347,-19.965011,-19.894106,-19.223640,-19.853624,-21.784065,-23.714971,-25.146353,-24.778216,-22.910570,-19.343423,-15.076782,-11.710656,-10.145051,-10.279974,-11.715434,-13.851438,-15.687991,-16.525101,-16.862775,-17.401019,-17.539839,-18.379241,-18.919231,-19.159816,-17.601000,-14.442790,-12.485190,-11.828205,-10.671841,-9.916102,-8.960993,-6.906519,-5.352682,-5.699489,-6.846942,-5.495046,-2.643803,-1.393217,-2.843292,-5.094030,-7.045435,-7.597508,-8.050253,-9.503671,-12.257765,-15.112537,-17.867988,-21.324120,-25.880934,-29.838432,-31.496614,-29.655482,-27.515035,-27.175275,-29.236201,-30.997814,-32.860113,-33.423099,-32.286770,-30.651126,-30.616167,-31.681891,-32.348296,-31.515382,-31.483147,-32.651589,-33.020706,-31.890497,-29.860958,-28.932087,-27.603881,-26.476338,-24.849455,-25.023228,-27.897654,-30.772729,-31.648450,-30.724812,-29.701812,-28.579445,-28.757707,-28.136593,-26.316099,-24.696219,-23.576948,-22.758281,-22.340212,-21.022737,-18.905849,-16.989541,-15.773809,-15.058646,-14.044045,-11.629999,-8.816503,-7.603549,-6.791130,-5.779239,-5.567869,-5.357012,-6.146661,-8.436807,-9.927443,-8.618561,-6.610153,-4.302210,-0.894724,3.712313,7.918911,9.225078,8.930823,8.136155,8.941084,10.545618,11.349767,11.853541,12.056949,11.560001,9.562707,7.065077,6.167120,7.968848,10.870270,12.471397,12.172239,12.272807,12.373111,10.073162,6.172972,3.672550,2.771908,3.271057,4.270008,5.768773,5.067361,3.765786,2.064059,1.062190,0.760191,2.358074,2.455851,1.253534,1.151133,1.748662,2.646131,3.543553,3.740940,4.338303,5.835655,7.333008,7.130374,6.127765,5.125193,3.822670,2.520209,1.617822,0.015521,-2.186682,-3.288774,-1.490743,1.307423,2.105736,1.904210,3.202855,5.401685,7.300712,7.999947,7.999404,8.399095,9.199032,10.799227,12.099692,13.800441,15.801483,18.002834,21.104503,23.706503,25.208848,25.111547,23.914614,23.418061,23.121899,22.726141,20.230798,18.635882,19.041405,19.147378,16.553814,12.660724,9.768119,10.476012,12.684412,14.093333,14.702785,14.812779,14.023327,12.734440,10.946128,10.358403,11.571276,14.484758,16.998858,19.413589,21.328960,22.744982,22.761666,21.679021,19.597059,17.815788,18.435220,19.655364,17.976230,14.497827,11.220166,9.043256,6.667107,3.291727,-0.082873,-0.656685,0.370300,2.098091,2.326697,0.956127,-1.413610,-3.482507,-3.750555,-2.417745,-1.084070,-1.249521,-1.914090,-2.377771,-3.540555,-7.402434,-11.963402,-15.023450,-15.082573,-15.240763,-15.698012,-16.654315,-16.209665,-15.064055,-14.317479,-13.369930,-13.121404,-12.771893,-12.621392,-12.569895,-12.117398,-12.063893,-11.309378,-10.353845,-8.897291,-6.939710,-5.281098,-3.921451,-3.060763,-2.599032,-0.836253,1.627579,3.092466,3.558413,2.425422,1.893497,2.662642,4.632859,5.604150,5.476519,5.049969,6.024501,7.000117,7.876820,8.554612,10.033494,11.113468,11.594536,10.076698,8.059955,5.544310,5.429761,8.716311,12.903959,15.192706,14.882551,13.173496,11.565539,11.458680,12.252920,13.848256,14.944689,15.042217,13.940840,13.140555,11.541362,10.043259,8.746244,7.250315,5.455469,4.161706,2.769022,0.677415,-0.113118,-0.502580,0.509026,1.821697,3.235429,3.050220,0.766065,-1.817040,-3.099098,-3.280114,-3.860091,-3.739035,-4.516950,-5.993840,-5.869712,-3.944568,-3.118416,-4.691260,-7.563106,-8.933958,-7.203825,-5.172710,-5.240620,-6.807562,-8.573541,-9.738565,-9.802640,-8.865772,-6.127969,-1.389238,2.550414,3.890979,3.032451,0.974821,-0.281917,-1.837773,-1.292755,1.353131,5.099875,8.847469,11.795904,13.945172,15.295264,15.146172,15.697885,17.650395,20.303693,20.657769,21.312614,21.168217,21.024571,20.781663,22.039485,23.398027,23.357278,23.617228,23.977866,23.739183,22.701167,23.663809,25.727096,24.891018,21.455565,18.320724,16.786486,16.652838,17.819770,20.087269,21.855326,21.823926,21.293061,20.762716,20.632881,20.703544,20.874693,20.046315,18.718399,17.490932,17.163902,17.137298,17.111106,16.285313,15.459909,13.834879,12.010212,10.285895,9.161915,8.138259,6.914915,4.991870,3.969111,5.146625,7.424399,8.802420,9.380675,8.659152,6.137836,2.516716,0.295777,-0.424992,-1.245606,-2.366077,-3.686419,-5.406645,-7.226768,-9.446801,-11.466757,-14.586650,-17.206493,-18.326298,-17.046080,-15.665851,-15.585625,-16.505415,-16.425233,-15.445093,-14.465009,-13.784992,-12.905058,-10.725217,-8.845484,-8.365871,-8.386392,-7.307059,-5.527886,-4.648884,-4.070068,-3.291449,-1.713041,0.965143,4.543092,5.720792,3.898231,0.175396,-1.747724,-1.471144,0.105126,1.481072,1.556683,1.531947,2.006850,1.981382,0.555531,-2.470717,-5.397372,-5.324445,-2.351950,0.720102,1.891701,2.462835,3.233491,3.703660,2.873329,1.042488,-1.388874,-4.920769,-8.353206,-11.286197,-13.519753,-14.253884,-13.388600,-14.623911,-17.359829,-18.696363,-18.633523,-18.971319,-19.809760,-19.048858,-17.788620,-18.729057,-21.770179,-25.511993,-28.054511,-29.397739,-29.941688,-29.086367,-27.231783,-26.477946,-26.124864,-24.872545,-23.920998,-23.770231,-23.820251,-23.271067,-23.122686,-22.775116,-22.828364,-24.082438,-25.737344,-26.393091,-27.249685,-29.707132,-32.365440,-33.024616,-31.284664,-30.745593,-32.107408,-33.570115,-32.733720,-30.998229,-29.163648,-27.629982,-25.097236,-21.765416,-17.734528,-13.704575,-9.975564,-8.347498,-6.820383,-3.794222,-1.669021,-2.444784,-5.921513,-7.299215,-4.677892,-1.257548,-0.838187,-2.719812,-4.602427,-5.186035,-5.270638,-3.656241,-1.842845,-1.430453,-1.619069,-0.608693,2.200670,3.609020,2.016353,-0.077331,-0.072036,2.032238,4.835489,6.137716,5.938916,5.339089,4.238234,3.836349,4.033435,4.629489,4.424512,5.018502,6.711460,5.603385,2.394276,-1.015865,-2.127040,-1.539248,-1.152489,-1.466763,-2.382068,-1.798406,-0.715774,-0.034173,0.046399,-1.374057,-4.295541,-5.418052,-4.241587,-2.866146,-1.791728,-2.218330,-3.845952,-6.074591,-7.704246,-7.634915,-6.466596,-5.999287,-6.932985,-7.967690,-7.403398,-7.040106,-9.577814,-13.416517,-15.156214,-14.996902,-13.738578,-11.281239,-9.324883,-7.969506,-7.515106,-7.261679,-6.909223,-6.057734,-4.607208,-3.657643,-3.409035,-2.761381,-0.214677,2.131080,2.375894,1.319768,1.362707,4.404713,8.045792,10.385946,10.225179,9.463496,9.800900,11.137395,12.472986,11.707676,11.741470,13.074372,15.206385,16.037514,14.167764,11.897138,11.525641,12.753277,13.980051,13.905966,11.131028,8.655240,6.478607,4.801134,3.622825,3.643684,3.863716,2.982925,4.501316,8.118894,11.035662,12.051626,10.566790,7.281158,3.694735,1.807526,2.419535,4.030766,6.441225,8.750915,8.759841,6.868008,5.975420,6.382082,6.087998,5.593173,4.897611,3.001316,1.004294,-0.493452,1.008082,4.408903,5.209012,3.408416,1.307118,1.605123,5.202435,7.299058,8.694997,10.090255,11.584838,11.378748,9.371991,8.664570,8.556490,7.547754,4.938367,3.228332,4.217654,5.406336,4.594383,2.981798,2.968585,3.654748,3.340291,3.425217,4.809530,6.193234,7.476333,9.458829,13.440727,18.122030,20.802741,21.582864,21.162402,21.641359,22.919738,25.297542,27.974774,29.151438,28.327537,27.103073,25.778050,24.352470,23.026338,20.699654,17.472424,15.344648,15.516331,17.087475,17.458082,14.828154,12.497696,11.766709,11.735196,9.903158,6.170600,2.837522,1.803927,2.869818,5.035197,6.300066,5.364427,3.628281,2.991633,3.454482,4.316831,5.678683,6.740038,6.500900,3.961268,0.821146,-1.219465,-3.460563,-6.202147,-8.944215,-10.086766,-9.329799,-8.873311,-9.817301,-11.561768,-14.006711,-16.352129,-19.598019,-22.944382,-25.091215,-24.338518,-22.186289,-20.534528,-20.783234,-21.732405,-21.682041,-21.232140,-20.682703,-20.433727,-18.785213,-16.337158,-12.989564,-11.942429,-12.295751,-12.149532,-11.103770,-9.758464,-8.013614,-5.869219,-3.325279,-1.381794,0.361237,3.503815,6.145939,8.887611,11.428830,12.969598,13.409913,11.449776,9.289189,10.428150,12.866660,15.004720,15.942329,17.179488,19.816197,21.452456,21.288264,20.323623,20.958532,23.292991,24.327001,24.860561,24.693672,23.626333,21.858544,20.590306,19.321619,18.852482,18.682896,19.212860,19.442375,18.671441,16.300056,14.128223,13.655940,13.283207,12.510025,11.336394,11.462313,12.587782,13.812802,13.037373,11.561494,9.785166,6.708389,4.531163,3.753487,5.175362,6.696789,6.317767,3.338296,1.158376,0.678009,-0.102807,-0.784070,-1.265782,-3.847940,-7.230545,-11.413597,-11.497096,-9.081040,-6.865430,-7.750266,-10.935545,-13.021269,-14.007437,-15.094048,-16.781101,-19.068596,-21.056532,-22.244909,-21.633726,-21.122981,-21.412675,-23.702806,-25.293373,-24.784376,-23.875813,-24.867684,-26.059987,-26.652721,-26.345885,-25.939478,-25.433498,-24.527945,-23.222817,-21.918112,-20.213829,-17.709966,-14.106522,-11.103496,-9.000885,-7.798687,-6.096902,-3.295527,0.705441,3.706001,4.706158,5.505913,6.505268,6.604225,5.202787,3.700955,2.898733,1.496123,-0.206873,-2.210251,-3.214010,-3.318147,-2.022659,-0.827542,0.567205,2.261587,6.355606,10.449264,11.842567,10.635516,9.528115,10.820368,13.912278,16.503848,18.395083,19.285985,19.476560,17.966810,14.956739,13.446353,13.235654,12.124647,9.913336,7.401725,4.889819,3.077623,1.365141,-0.247623,-1.760664,-2.973977,-4.787557,-7.601399,-11.515498,-14.129849,-15.544447,-14.859287,-13.174363,-12.489670,-12.405202,-10.920954,-7.336920,-4.853095,-3.969472,-3.386046,-2.002810,-1.019760,0.063113,2.445813,3.628347,2.910721,0.092942,-3.324983,-4.243049,-3.061247,-1.479573,-2.098018,-3.516576,-5.335239,-4.954001,-2.972855,-1.891793,-2.710808,-3.029893,-1.749039,-1.168240,-1.587488,-2.606775,-3.926093,-3.745435,-1.964793,0.415842,-0.003522,-2.722878,-3.642217,-1.161530,1.419190,1.799952,0.780764,-0.338364,-1.457424,-1.876408,-2.595306,-3.414110,-4.732810,-5.151399,-5.469866,-5.188203,-4.406400,-2.524448,0.257662,2.939940,5.122395,5.305037,3.887875,2.370919,3.154179,6.737664,9.521384,8.305349,3.489570,-1.325945,-4.441184,-5.756139,-6.570798,-7.285151,-8.199189,-10.212901,-12.926276,-13.139304,-12.451975,-11.864279,-12.676204,-14.887740,-17.798877,-20.309604,-20.419910,-19.829784,-19.439216,-19.148195,-19.256711,-18.964751,-18.272306,-17.279364,-17.885914,-18.991946,-21.297449,-23.502411,-24.506821,-23.410669,-21.013943,-20.216632,-21.418725,-22.620211,-22.221078,-20.321317,-18.920914,-17.119860,-14.418142,-12.715751,-13.312674,-14.608901,-14.404419,-13.399219,-12.093288,-9.486616,-6.679192,-5.571004,-5.462040,-5.452291,-3.741745,-0.430390,2.281785,2.994790,2.808636,3.123336,4.438899,7.255337,10.972660,12.490880,12.510008,11.530054,10.851029,10.672945,10.195811,8.619639,6.944439,4.570222,3.496998,4.224779,6.153574,8.383393,10.514248,12.446149,14.879106,17.813128,20.348227,20.384412,19.121694,15.660082,13.799585,14.540215,14.681981,14.424892,13.368957,13.214187,14.460591,16.208178,16.856957,14.906938,10.558129,7.210540,5.464179,3.519055,2.175178,1.832554,2.291194,2.751105,3.212295,3.874773,4.738547,4.603625,3.270014,1.937722,1.906757,1.477127,0.448838,0.121899,0.896315,1.272094,-1.250757,-5.672231,-7.492322,-6.411023,-4.528329,-5.744232,-9.458727,-11.671808,-13.183470,-14.693705,-15.702510,-14.609879,-13.415806,-13.920287,-13.223317,-12.024891,-11.325004,-11.523652,-11.120832,-9.916538,-8.710767,-6.603516,-5.394780,-4.484557,-3.972843,-4.059635,-3.744930,-2.828726,-1.211020,-0.791810,-1.771094,-2.448869,-2.025135,0.000112,3.526870,7.055144,6.684932,4.616236,2.649056,1.983393,2.719247,5.356619,7.995507,10.735911,13.077831,14.321266,14.766215,15.712676,17.660649,19.410131,19.461120,18.913615,19.367612,20.723110,21.980106,21.438597,18.698578,15.660048,14.523002,15.487436,16.753346,17.420728,16.089578,13.159889,11.031657,10.204878,8.379544,5.855651,2.633192,0.112161,-1.007448,-1.725642,-2.742429,-3.757816,-4.971810,-4.984419,-4.695650,-4.505514,-3.314017,-2.121168,-0.426978,0.768546,-0.634607,-3.836447,-7.936983,-10.436226,-10.134187,-7.930876,-5.026305,-1.920485,-1.013427,-2.805144,-3.695648,-3.584951,-2.173066,0.439993,2.654214,2.769583,1.386086,0.303710,1.322438,3.842258,5.163154,3.685110,1.008112,1.032144,3.457188,6.483230,8.210252,9.238238,11.767170,14.897031,17.827803,19.859468,21.092008,20.025404,17.559637,15.994688,15.030538,14.267166,12.104554,12.242679,14.181523,16.221063,17.561279,18.502149,20.043652,21.785765,22.928465,22.571731,20.215540,16.759867,13.004690,11.149984,11.695726,11.841891,11.388455,11.135392,11.782677,13.830284,15.778188,16.026363,11.874781,6.723417,3.872242,5.121230,5.870353,4.219584,3.868892,5.718252,7.267632,7.517005,7.066340,4.315608,-0.135221,-3.386177,-5.537291,-7.588594,-11.640118,-14.691893,-14.843952,-13.596326,-13.449049,-15.002153,-17.255671,-18.209635,-18.464081,-18.319042,-18.674551,-20.330644,-22.287355,-24.144720,-24.702774,-24.661552,-25.021090,-25.481426,-25.342595,-22.704634,-18.867581,-16.231473,-16.396348,-16.162243,-14.529198,-13.697251,-12.266441
1,3,-12.010408,-14.649673,-17.388533,-17.226974,-15.164980,-14.802536,-16.039626,-16.976236,-16.512349,-13.947951,-11.183026,-8.517559,-7.751535,-8.184937,-8.617752,-7.749964,-3.481557,1.587484,5.557174,4.927527,3.298560,1.770288,2.542725,3.915887,4.389788,3.264444,2.339870,2.716080,5.293089,7.570913,7.649565,7.729061,9.309415,12.390643,14.472757,14.455774,13.839707,14.524570,16.910379,19.997146,21.284887,21.973615,22.263344,21.154088,20.145862,20.638678,21.032550,20.227492,18.323518,15.920640,13.918872,13.818227,15.118719,15.920359,14.323161,11.527138,7.832302,5.538666,3.646243,1.055044,-2.034919,-4.923633,-5.911086,-4.997267,-4.982163,-8.865764,-14.248058,-16.329034,-14.708680,-14.186985,-15.863940,-16.239532,-15.113751,-13.386587,-12.558030,-11.428070,-10.796696,-10.863898,-11.729667,-12.393994,-11.556869,-8.718283,-5.978226,-3.936690,-1.693666,0.250854,0.096879,-1.655583,-5.006524,-7.555936,-6.503811,-2.650142,1.305079,4.861858,7.220204,9.080121,10.941619,12.204702,14.469376,17.335649,19.003526,19.673013,21.044115,22.716837,23.991185,24.067163,24.544777,25.024031,24.904929,23.687476,23.771675,26.757530,28.645045,28.334222,26.925067,26.617580,25.811765,24.007625,23.305162,22.304378,20.705275,18.007854,17.012118,17.818067,18.325703,17.835027,16.846038,17.358739,19.973129,22.189208,22.306975,21.426432,20.047576,17.470408,14.394927,11.421130,8.249017,5.378587,2.209837,1.142765,1.877369,3.713648,6.551597,8.491214,8.632497,8.975441,9.320044,7.866301,6.614209,6.263764,7.414961,7.167797,6.422265,5.878362,6.636082,8.495419,11.956369,16.818925,18.583082,15.848834,11.816173,9.185095,8.055591,8.027655,8.101280,7.876458,7.053183,7.531446,10.611239,12.292555,10.975384,6.859720,4.345552,3.632873,4.121672,3.011942,1.103672,0.996853,3.491476,6.187530,6.585005,7.383891,9.484178,11.685855,12.388910,14.093335,17.399116,19.906243,21.114704,22.224489,23.635584,24.147978,23.261660,21.476616,20.892834,19.910303,16.329008,13.548938,13.270080,15.292419,15.715944,14.840640,13.166494,11.393492,10.421621,9.550866,8.581214,6.812650,4.045160,2.078729,2.413344,3.148988,2.285648,0.423309,-0.538046,-0.298429,-0.957858,-3.516347,-6.273912,-8.330569,-8.686332,-8.741219,-9.095244,-9.248423,-9.600774,-8.752311,-8.403051,-9.953011,-13.002206,-14.950654,-16.198371,-16.545372,-17.991676,-19.037299,-20.382258,-20.926569,-20.870249,-20.313316,-19.655787,-19.397678,-19.239007,-18.279792,-17.520049,-16.859795,-15.699049,-14.237828,-13.576148,-14.914028,-16.851485,-18.688537,-19.525200,-18.861494,-17.797435,-17.333041,-17.068330,-17.103320,-17.638028,-17.972472,-17.806669,-16.340639,-12.674397,-7.107962,-3.241353,-2.974586,-4.107679,-4.440651,-2.273518,1.893701,5.860988,8.628326,10.595697,12.663084,14.930468,16.997833,17.465159,15.632431,12.199630,10.266738,10.133739,9.100614,8.567346,9.733918,12.100312,12.866512,11.932499,11.298256,11.563767,12.729015,12.693981,12.358649,11.823002,12.187024,13.350697,13.114004,12.276929,11.639455,12.001566,12.163245,11.024475,8.585240,6.245525,5.205312,3.964585,2.623329,1.381527,0.439164,-1.103776,-3.247309,-4.191451,-4.136216,-4.581622,-6.827682,-10.674412,-14.021827,-16.569943,-18.218774,-17.768335,-15.418641,-13.469706,-13.521545,-13.974172,-16.127602,-19.081848,-20.036925,-19.492847,-19.449628,-19.607281,-19.165820,-20.025258,-20.985608,-22.346885,-24.509100,-26.972268,-27.236400,-26.901509,-27.067609,-27.534711,-26.702828,-24.571971,-24.342154,-25.613387,-26.285684,-24.759054,-22.933510,-22.209063,-22.285725,-21.463506,-17.042417,-12.522469,-9.703673,-8.286039,-6.469578,-4.254299,-3.540213,-4.427330,-3.715660,-2.305211,-0.895994,-0.788017,-1.981290,-2.875823,-2.371623,-1.168700,-0.967061,-0.166716,2.232327,4.330061,5.826477,6.221567,6.815325,6.207742,4.798811,3.688525,3.976877,5.963861,7.649469,6.633695,3.016533,-0.202024,-0.321982,1.456655,2.533878,0.809685,-1.215933,-2.742978,-2.871458,-2.401375,-2.232736,-2.165546,-1.799807,-0.735525,-1.272705,-1.811349,-0.251462,2.006953,3.063891,1.019350,-1.926673,-4.374183,-3.323181,0.126330,3.374347,4.220867,3.365888,2.309409,0.751427,-1.808060,-5.569054,-8.831556,-9.795566,-9.961088,-10.228121,-11.396667,-15.166727,-19.238300,-22.811388,-25.285991,-26.662110,-27.139743,-26.618892,-25.499555,-23.981733,-22.065426,-20.250631,-18.737349,-17.325579,-16.015320,-14.706570,-13.699328,-11.693592,-8.989362,-6.586634,-5.185408,-4.385682,-3.687452,-2.790717,-1.395475,-0.601723,-0.309458,1.581323,4.170622,4.858443,3.744788,2.729662,3.013067,3.695006,3.675485,3.254506,3.332073,4.208190,5.382862,5.456093,5.527887,7.298248,8.467181,9.434691,11.100783,12.465462,13.128731,14.290598,15.451066,15.410142,13.467830,11.124136,10.379067,10.332626,9.084822,7.135658,5.285142,3.433279,1.880076,-0.074461,-0.930326,-0.887512,-1.546012,-2.105820,-1.966930,-1.229334,0.806975,2.042003,3.375758,3.708247,2.339477,0.569455,-0.601811,-1.374314,-2.948046,-3.423000,-2.899167,-2.576541,-3.255113,-3.834876,-3.915821,-3.897940,-4.181226,-4.065670,-4.851264,-4.637999,-4.025868,-3.614862,-3.204972,-1.796190,0.311493,2.418085,3.423595,3.828032,2.031404,0.533721,1.934991,4.735224,7.534427,9.032612,8.929785,7.925957,7.721137,8.715334,12.008557,16.000816,17.692120,16.582477,14.871899,15.660394,18.847972,20.734642,19.820413,16.305296,11.489301,7.972436,6.554711,6.936137,7.816723,8.596478,9.375413,9.753538,10.030862,11.407395,15.083148,18.558129,20.432350,21.605820,23.578549,24.550548,24.021826,23.292393,24.362259,26.531436,27.299932,25.167758,21.134925,17.201442,15.667319,16.832567,18.497197,17.761218,16.224641,14.987475,14.849732,13.211422,9.872554,6.833140,5.993190,6.252714,6.011722,4.870225,3.428233,3.085758,4.142808,5.099395,5.455529,6.111220,5.266480,3.021318,0.675745,-1.670229,-4.016593,-7.063336,-9.610449,-11.257919,-11.805738,-12.853895,-13.902378,-15.851178,-16.800283,-16.949684,-18.899370,-21.849330,-22.899553,-20.750029,-17.600748,-16.751699,-16.402871,-15.454254,-13.405837,-9.957609,-6.209561,-3.061681,-0.013958,3.533617,5.881056,8.128368,12.275566,16.822658,19.969657,20.816572,20.063414,18.410194,16.856922,16.903609,16.650265,16.996902,17.043529,17.990158,19.636799,20.483462,20.730158,19.776899,17.723694,14.870553,13.117489,12.764511,10.611629,8.058856,7.706200,8.453673,9.601285,9.149047,7.396970,6.645064,7.293339,7.541807,6.590477,4.839362,1.288470,-3.462187,-7.812599,-9.862755,-11.012645,-13.862258,-18.511583,-20.360610,-17.809329,-14.157728,-14.405798,-17.053527,-18.900905,-19.647922,-20.794567,-22.140830,-23.486700,-24.732166,-25.777218,-27.521846,-28.966038,-30.509786,-31.853077,-32.895902,-32.838250,-32.680110,-31.721473,-30.762327,-30.402663,-29.742470,-27.581737,-25.220455,-24.458612,-25.796198,-27.133203,-26.469617,-24.005430,-21.040630,-19.075208,-19.309153,-20.242455,-20.975105,-21.207090,-20.138402,-17.869030,-15.198964,-12.628194,-9.756709,-6.584500,-3.711556,0.362133,5.336576,9.711785,13.287768,15.764537,16.642100,16.120469,16.099652,17.479660,18.460503,18.642191,16.724732,14.908138,15.992418,18.077582,18.463639,17.350600,16.338473,17.027268,18.416996,19.807665,19.999285,19.891865,20.285416,21.179946,22.175465,21.671982,19.969507,17.868048,16.667615,14.668218,13.469864,14.372564,16.676326,17.681160,16.887074,14.394078,12.002179,9.611388,5.821712,1.433161,-1.854257,-2.940533,-4.225659,-6.909626,-9.492426,-10.574049,-10.754489,-11.433736,-12.711782,-12.588619,-11.264239,-10.738634,-11.811796,-12.783717,-13.354388,-14.123803,-14.791952,-14.858830,-16.024427,-17.588737,-17.851751,-19.013463,-22.273864,-26.132948,-27.890708,-27.547136,-27.002224,-25.955967,-24.308357,-22.259386,-21.209050,-20.157339,-19.304249,-18.449772,-17.393902,-14.936632,-12.577956,-9.417867,-6.256361,-3.493429,-2.429067,-2.263269,-1.696028,0.372661,3.642804,6.114407,7.687474,8.562012,9.638025,11.615520,14.194500,16.374972,16.256939,14.740408,14.325382,14.311866,12.899865,10.989384,9.080426,8.172996,8.367098,8.262736,7.459915,6.058637,4.858907,4.760728,5.264103,7.069037,8.275533,7.283592,6.193220,6.804418,7.617190,8.131537,7.147464,5.164972,3.784063,1.904741,-0.972994,-2.749138,-4.723691,-7.196649,-9.968013,-12.037779,-12.805948,-14.072516,-15.137484,-16.800850,-17.662614,-18.022774,-18.881330,-19.738282,-19.993628,-18.247370,-14.499506,-10.250037,-10.498963,-13.946284,-17.092001,-17.336114,-13.578624,-9.819532,-9.658839,-11.296545,-11.432653,-11.267163,-12.100077,-13.031398,-12.561126,-10.989263,-10.015812,-8.640776,-7.064155,-6.485954,-7.506174,-7.124819,-5.141892,-1.157395,1.228667,2.516292,3.205476,3.096215,3.788506,5.282343,4.577723,1.174642,-1.126905,-0.026922,2.674584,3.977611,5.082152,6.588201,8.895755,11.004806,13.115350,14.527380,14.440891,14.255875,14.872327,15.190240,16.109607,17.330422,18.452677,18.476365,17.601480,17.228012,17.055955,16.285301,14.616042,13.248170,14.781676,17.116552,18.552789,17.890379,17.229312,17.269580,18.811173,21.554082,24.098297,25.243808,26.590606,26.938681,24.988022,21.438618,18.190460,17.143537,18.197838,16.953352,13.410067,11.467973,12.027058,13.387311,13.448719,11.711270,9.274954,8.239757,7.105667,7.672671,8.340758,7.409913,5.480125,4.951380,4.423664,3.396965,2.371269,1.746562,2.522830,3.900060,3.878237,2.357347,-0.662625,-3.781692,-4.699870,-5.417173,-5.933616,-5.449215,-4.363984,-3.877939,-4.391095,-6.003468,-8.215074,-9.925928,-9.536047,-7.445446,-4.254141,-0.962150,2.330512,4.323828,4.517781,4.412354,5.407531,7.603295,9.899628,10.896514,11.493934,11.291871,10.190309,8.089228,5.688612,5.188442,6.188700,5.689369,4.790430,6.491866,10.093656,12.695784,14.498231,16.800978,18.304006,16.507296,14.510830,15.114589,17.318553,18.422704,18.027022,17.831489,18.036084,18.540788,19.145583,19.550448,19.955363,20.060310,19.865268,19.170218,17.375140,14.380013,10.284819,6.689536,5.194146,5.998627,7.002961,7.007125,6.211102,5.514869,4.418408,2.221697,-0.175283,-1.572554,-2.770135,-3.168047,-3.766310,-4.364945,-4.863972,-4.963412,-4.963285,-3.163612,-1.964413,-1.865708,-2.867519,-3.669866,-3.472769,-3.576250,-4.580327,-5.585023,-6.790357,-8.396350,-9.903022,-10.410395,-11.118487,-13.227321,-14.236916,-13.047292,-10.858471,-9.170472,-8.583316,-9.697022,-11.111612,-11.227105,-9.543522,-6.960883,-5.579207,-5.098515,-4.418827,-2.640163,-0.262542,2.014015,5.089489,8.163860,9.937108,10.309214,9.080158,7.149921,6.418483,6.585826,6.251929,4.316774,1.380341,-1.357389,-3.596434,-4.536813,-3.678545,-2.221649,-1.166144,-1.012048,-2.459379,-6.108155,-11.158396,-15.110119,-17.063341,-16.318082,-15.974359,-15.132189,-13.891590,-12.952580,-14.315177,-15.979396,-16.545256,-17.212774,-20.081967,-23.852850,-25.525442,-24.299758,-22.375816,-21.653631,-22.033219,-22.414597,-21.797781,-21.182786,-21.069628,-20.658323,-20.748886,-21.541332,-22.835676,-23.331934,-22.430120,-20.430249,-18.232335,-18.036394,-19.942438,-20.250482,-17.960541,-15.172628,-14.086756,-13.902940,-13.821192,-14.741525,-16.963954,-19.188490,-21.015146,-24.043935,-27.574869,-29.507960,-30.143222,-28.480664,-23.720300,-19.862140,-17.406196,-15.752480,-12.701002,-8.451773,-5.104804,-1.860106,0.482312,1.622438,1.160264,1.495779,4.328973,8.959837,12.988361,14.314537,12.438356,9.459809,8.378887,9.695582,12.209885,13.121789,12.431286,11.138368,11.143027,11.745257,13.445050,13.142399,11.237298,9.629740,9.819719,9.807228,9.292262,8.974815,9.754881,12.132455,13.607531,14.080105,14.050172,13.817727,12.382766,10.145285,7.605279,6.062745,5.817679,5.370078,4.019938,2.267257,1.512032,1.754259,1.893937,0.731063,-1.134365,-2.802348,-3.772888,-4.345987,-4.821645,-4.299865,-3.580646,-3.663989,-4.249895,-3.638363,-1.629395,1.877011,5.580855,6.882137,7.380859,7.977020,8.070624,8.261670,8.650162,6.836099,4.019486,0.900324,-2.021385,-2.945638,-1.172432,0.798237,0.366371,-1.968025,-5.004948,-7.944395,-7.986360,-5.730840,-4.077829,-3.827323,-5.079318,-4.933806,-3.190784,-2.350246,-1.312184,0.623405,4.856530,9.587196,12.915411,12.641181,11.764513,13.285416,16.403896,18.119961,18.733620,18.444881,18.553752,20.360243,22.964361,23.566117,22.365519,20.862578,19.157302,15.849703,12.139790,8.327574,5.513066,2.296276,0.577216,0.055897,0.632331,0.106530,-1.621495,-5.251732,-7.584166,-6.618787,-4.855581,-4.094534,-4.135634,-2.878867,-2.324219,-2.371675,-3.521223,-4.772846,-5.526531,-5.382262,-5.040025,-5.499803,-6.161581,-3.925344,-0.191075,1.641242,0.571624,-1.399913,-3.673352,-4.748675,-5.525865,-7.104904,-9.685774,-11.968458,-11.452936,-10.039191,-7.427203,-6.016954,-7.508424,-9.101593,-9.796443,-8.392952,-7.891101,-7.690869,-7.892236,-6.595181,-5.799683,-6.405720,-7.613271,-8.122313,-8.532826,-9.244787,-9.358173,-8.572961,-7.489129,-7.106654,-8.625512,-9.845679,-8.467132,-5.989846,-4.413797,-3.338962,0.434686,4.007172,6.078519,6.048754,5.517903,5.585992,6.753046,9.219092,12.484156,15.148266,17.211448,17.273731,16.235141,15.095705,14.555453,13.214413,9.972612,7.130079,7.486844,9.442936,10.198383,9.353216,8.707464,8.361158,7.114327,4.567003,3.519216,3.670996,4.522376,4.573386,4.024059,2.774426,-0.075481,-3.025629,-4.175986,-3.526519,-1.677195,0.172020,0.621158,-0.729746,-2.880658,-5.331545,-8.782371,-11.933103,-13.883705,-13.234142,-11.984378,-11.734380,-11.884109,-12.433531,-12.682610,-11.631308,-10.379589,-11.027416,-13.674752,-15.421560,-15.867802,-16.213440,-16.558436,-15.602752,-14.546348,-12.989188,-12.031231,-10.372438,-9.112770,-8.852188,-10.190650,-12.728118,-16.564551,-19.499908,-19.634149,-15.367232,-10.999116,-8.929761,-10.559123,-12.287162,-10.613835,-6.439099,-1.862913,-0.285233,-0.306016,0.174781,2.657201,6.441289,8.227087,8.014641,7.203994,8.295192,11.888279,14.683300,15.280300,16.879326,20.280422,22.783634,23.989009,24.696594,24.706434,25.218577,25.133069,25.549959,26.869292,27.491118,25.315484,22.642439,21.572030,20.404306,18.039317,16.977110,17.217736,16.461244,13.707684,11.157105,11.309558,14.365094,16.823762,15.785614,13.950700,13.219072,13.690782,14.565881,14.444421,12.826455,11.412034,12.501211,13.394039,12.090572,9.490862,8.894963,8.902929,7.614813,4.630670,0.250554,-4.725480,-7.697378,-8.265084,-8.028543,-8.787699,-11.042498,-13.792882,-15.438796,-14.680184,-13.516988,-13.349152,-14.576619,-15.699331,-15.217231,-13.230262,-10.638365,-9.441483,-9.239556,-9.832526,-10.220334,-10.702922,-12.980229,-15.352197,-14.418766,-10.479875,-5.435464,-1.585474,-1.629843,-5.468510,-10.101415,-13.028496,-14.849692,-16.864940,-17.574179,-15.977347,-13.874381,-12.965218,-14.349796,-15.428051,-13.699921,-10.465341,-8.824247,-7.876577,-7.322264,-7.061246,-6.193457,-5.018833,-4.237308,-2.548816,-1.053293,0.149327,0.459112,-0.823874,-1.399564,-0.167891,1.671213,3.117813,3.071979,2.533776,3.203273,3.980539,5.665641,8.458648,10.359628,11.768652,13.085787,13.511103,12.044670,9.286558,7.136837,7.195577,8.862849,11.238723,12.923271,14.116563,15.118672,14.329668,12.449625,9.178613,6.816705,5.763974,3.720493,-1.513666,-5.638429,-6.653722,-5.159473,-4.255606,-4.842049,-7.018726,-8.185562,-7.142485,-4.689417,-2.026284,-0.553010,-0.069520,-0.975737,-1.971586,-3.156990,-2.231872,-1.896156,-3.149765,-5.592621,-6.724646,-4.645763,-2.555895,-1.454962,-0.842886