1,3,0.151761,0.353675,0.455579,0.457472,0.959353,0.761223,0.363081,0.364926,0.566759,0.668579,0.370386,0.072179,0.073959,0.475724,0.977474,1.079210,0.580931,0.382636,0.084325,-0.114003,-0.212346,-0.310707,-0.209085,-0.607480,-0.605893,-0.404324,-0.302774,-0.401243,-0.499731,-0.298238,0.003234,0.504687,0.106118,-0.092471,-0.191081,-0.089713,-0.588366,-0.687042,-0.585740,-0.484462,-0.783206,-0.781974,-0.780766,-0.779582,-0.478423,-0.277289,-0.176180,0.124904,0.225962,-0.173007,-0.772002,-0.971024,-0.370073,-0.369149,-0.468254,-0.067386,-0.566547,-0.665737,-0.464956,-0.564205,-0.463483,-0.162792,0.237869,0.338500,0.139099,0.139667,0.440203,0.540707,0.241179,0.241618,0.142025,0.242398,-0.157263,-0.056957,0.443314,0.843551,0.443754,0.443921,0.444053,0.544149,0.544209,0.344233,-0.055779,-0.355829,-0.055915,0.043961,0.143799,0.443600,0.143362,-0.156914,0.242771,0.542417,0.542024,0.241591,0.041118,-0.559394,-0.359948,0.039459,0.238824,0.038148,0.137431,0.136672,0.335872,0.335029,-0.165856,-0.166784,-0.367754,0.131232,0.230175,0.129075,-0.172069,-0.373257,-0.374489,-0.075766,-0.077087,-0.478453,-0.779864,-0.581320,-0.282821,-0.284368,-0.985961,-0.687600,-0.089285,0.708984,0.407206,-0.494618,-0.596489,-0.498407,-0.400373,-0.002386,0.695554,1.093446,0.891290,0.389087,-0.113165,0.284535,0.482186,0.279790,0.477344,0.774850,0.672307,0.469715,0.567074,1.264383,0.961644,0.958855,0.756016,0.953128,0.450191,0.447203,0.444166,0.441079,0.037942,-0.065245,-0.068483,0.028230,-0.375108,-0.278495,0.118066,0.414578,0.311039,0.007450,-0.196189,0.200121,0.096380,-0.207411,-0.111252,0.084856,0.280914,0.176921,-0.327122,-0.231216,0.164640,0.060446,-0.443799,-0.348094,0.047561,0.743165,0.338719,-0.265776,-0.170322,0.225082,0.520436,0.315741,-0.289005,-0.293800,-0.198644,0.096462,-0.008482,-0.113474,-0.018516,0.376393,0.371253,0.366064,-0.239173,-0.144459,-0.149793,0.144825,-0.060605,-0.066084,0.128390,0.122816,0.117195,-0.688473,-0.794188,-1.099950,-0.905759,-0.811615,-0.817516,-0.323464,-0.329457,-0.635496,-0.241581,-0.447710,-0.653885,-0.760104,-0.966368,-0.872675,-0.579027,-0.585422,-0.591861,0.001657,0.095133,-0.211435,-0.118044,0.075305,0.068612,0.361877,0.555102,0.648286,0.641429,0.234532,0.227596,0.420620,0.613605,0.706551,0.099459,0.192329,0.085161,0.477956,0.670714,0.563436,0.256121,0.248770,-0.158616,0.033963,-0.273493,-0.380983,-0.788507,-1.196064,-1.203654,-1.111277,-0.918932,-1.026618,-1.234337,-1.342085,-1.549865,-1.157674,-1.165513,-1.273381,-1.681277,-1.089202,-0.697154,-0.805134,-0.813140,-1.021172,-1.029231,-0.937314,-0.645423,-0.853555,-0.861712,-0.769892,-0.878095,-1.086320,-0.994566,-1.102835,-1.411123,-0.719432,-0.727761,-1.036109,-0.844476,-0.752861,-0.661263,-0.969683,-0.578119,-0.386571,-0.795039,-0.603521,-0.812018,-0.720528,-0.829052,-0.837588,-0.446137,-0.854697,-0.963268,-1.071850,-0.980441,-0.889042,-0.697651,-0.806269,-1.314894,-1.423526,-1.232165,-1.140809,-1.149459,-0.858113,-0.866771,0.024567,0.615902,0.707234,0.598565,0.089895,-0.018776,0.072554,0.363883,0.555214,0.546547,0.637882,0.529220,0.620562,1.011907,0.703258,0.194613,-0.114025,0.177343,0.468718,1.060100,0.851491,0.842891,0.634300,1.225719,1.117148,0.908589,0.800041,0.991506,0.782984,0.974475,1.165980,1.257499,1.049034,0.940585,1.332152,1.023735,0.915337,1.006956,1.298594,1.190251,1.381927,1.273624,0.965342,0.657081,0.448841,0.740625,1.032431,0.824261,0.416115,0.207993,0.099897,0.191826,0.183782,-0.024236,-0.232227,-0.140190,0.551876,0.743970,0.336093,0.328246,0.720430,0.712644,0.704890,0.097167,0.089477,0.281819,0.574194,0.766604,0.859047,0.851525,0.544038,0.036587,-0.570829,-0.378208,-0.285550,0.107146,0.099879,-0.007350,-0.214540,0.178309,0.171198,-0.135874,-0.242905,-0.449895,0.043156,0.536248,0.429382,0.122559,0.515778,0.709041,0.702347,0.395696,0.189090,-0.017471,-0.223988,-0.030459,0.163116,0.056736,0.250403,0.444116,0.337877,0.131684,-0.574460,-0.380557,-0.186605,-0.092605,-0.198556,-0.204458,-0.410311,-0.016114,0.478134,0.372431,0.466779,0.561178,0.455628,0.150129,-0.155318,0.139286,0.333943,0.528651,-0.076588,-0.281774,-0.386907,-0.091987,-0.197014,-0.401987,-0.206906,-0.111772,0.083417,0.078659,0.073957,0.469308,0.264715,0.360177,0.455693,0.151265,0.046892,0.142575,-0.061687,-0.165893,0.029957,0.025863,0.021825,0.117844,0.213918,0.410049,0.206237,0.402481,0.598781,0.595139,0.191553,-0.311976,0.184552,1.081137,1.177779,0.874479,0.671235,0.468048,0.564919,0.461847,0.158831,-0.244126,-0.247027,-0.149870,0.247344,0.544615,0.441944,0.239329,0.036772,0.534272,0.331830,0.229444,0.527116,0.624844,1.022630,1.320473,1.518372,1.016328,0.514342,0.212412,0.310538,0.408721,0.106961,0.505257,0.103610,0.102018,-0.299517,-0.000996,0.197581,0.296214,0.194903,0.293647,-0.407553,-0.608698,-0.709787,-0.110821,0.188200,0.187275,0.386406,0.385591,0.384831,0.284125,-0.016527,0.282875,-0.017669,-0.118159,-0.718595,-0.718978,-0.619308,-0.319584,0.280192,0.180021,0.079903,-0.120163,-0.220177,0.079861,0.379951,0.480093,0.580287,0.180531,-0.019173,-0.118827,-0.118429,0.282019,0.282517,0.283065,-0.116337,-0.315689,0.385008,0.585755,0.186551,0.087395,0.388288,0.289230,0.090219,0.091257,0.292343,0.293476,0.294656,0.095884,-0.002842,-0.101521,-0.000153,-0.198740,-0.097280,-0.395775,-0.494224,-0.392628,-0.090986,-0.389300,-0.787570,-1.485795,-1.183975,-1.182112,-0.480206,-0.578255,-0.976262,-1.374225,-1.272146,-0.470025,-0.367861,-0.365655,-0.463407,-0.461117,-0.758787,-0.356415,-0.054002,-0.051548,-0.049054,-0.046520,0.056054,0.258668,-0.038679,-0.335986,-0.433255,-0.330484,-0.227675,-0.524827,-0.321942,-0.219018,0.283944,0.186942,0.689979,0.493052,0.796162,0.999309,0.502492,0.305711,0.208966,0.612257,0.215584,-0.281054,-0.377657,-1.074225,-0.870758,-0.767257,-0.763721,-0.560152,-1.156548,-1.252911,-0.949240,-0.645536,-0.741798,-0.538028,-0.534225,-0.930390,-0.526522,-0.222621,0.381311,-0.014725,-0.310730,-0.206703,-0.402644,-0.098555,-0.094435,-0.190284,-0.086102,-0.281890,-0.077647,-0.373375,-0.269073,0.035260,0.339621,0.244013,-0.251567,-0.347117,-0.242639,-0.438131,-0.733595,-0.829031,-0.524437,-0.319816,-0.115167,-0.310489,-0.305784,-0.301051,0.003709,0.008497,-0.086687,-0.581845,-0.276975,-0.072079,-0.067156,0.137794,-0.057229,-0.352226,-0.347197,-0.242141,-0.337059,0.068048,0.173182,0.078341,-0.016474,-0.511263,-0.706027,-0.300765,-0.095478,0.309834,0.015171,0.020533,0.125921,0.131333,0.436769,0.842231,0.847717,0.253228,-0.141237,0.264322,0.769905,0.675513,0.381145,0.386801,0.392481,0.098185,0.003912,0.209664,0.015439,-0.278762,-0.172940,-0.667094,-0.661225,-0.555332,-0.449416,-0.443477,-0.737515,-0.831529,-0.825521,-0.519489,-0.713434,-0.807357,-0.801256,-0.895133,-0.588987,-0.582818,-0.676627,-0.470413,-1.064176,-0.957917,-1.151635,-0.945331,-1.039005,-0.732656,-0.326285,-0.519892,-0.913476,-1.407039,-1.000579,-0.594097,-0.087593,-0.281067,-0.074519,0.232050,0.038642,-0.554745,-0.848110,-0.341453,-0.234775,-0.328075,-0.321353,-0.214610,-0.507846,-0.601060,-0.394252,-0.587423,-0.080573,0.126298,0.033190,-0.159896,-0.052962,-0.146006,0.060970,0.267968,0.674986,0.382025,0.089085,0.096165,0.303267,0.410388,0.217530,0.324693,0.631876,1.039079,0.646302,0.653546,0.560810,0.668093,0.775397,0.782720,0.590063,0.597426,0.504809,1.212211,0.819632,0.927073,0.334533,0.142012,0.149510,0.957027,0.864563,0.972118,0.579692,0.487284,0.694894,0.802523,0.110170,0.017835,0.525518,0.733219,0.440938,-0.051326,0.456428,0.664199,0.771987,0.779793,0.187615,0.395454,0.903310,1.111183,0.819071,1.126976,1.134897,0.942834,0.050787,-0.341245,0.166739,0.574738,0.782752,0.790780,0.698824,0.506882,0.414954,0.923041,0.931141,0.439255,0.047383,0.155524,0.563678,0.971845,0.980025,0.488217,0.596422,0.404639,0.312867,0.521107,0.229359,0.437621,0.445895,0.354179,0.362474,0.070778,-0.320907,-0.212583,-0.204249,-0.795906,-0.887555,-0.679194,-0.070826,-0.262449,-0.354065,-0.645673,-0.337274,-0.128868,-0.120456,-0.612037,-0.703612,-0.795182,-0.686746,-0.978305,-1.469859,-1.961409,-1.852955,-1.844497,-1.236036,-1.427571,-1.319104,-1.410634,-1.002162,-0.893688,-0.985213,-1.376737,-1.168261,-0.959784,-0.751307,-0.542830,-0.834354,-1.025880,-1.117407,-1.308936,-0.900467,-0.492001,-0.383538,-0.575078,-0.566622,-0.358171,-0.249724,-0.141283,-0.132847,-0.024417,0.184007,-0.007576,0.100834,-0.190764,0.217630,0.326015,0.534391,0.642759,0.951116,1.059463,1.167799,1.276124,1.284437,1.592738,1.401027,1.109302,0.917564,0.925812,1.434046,1.642264,1.050467,0.758655,0.366825,0.574979,1.083115,0.991234,0.799334,0.807415,0.915477,1.023519,0.831540,0.839540,0.947519,0.455476,0.363411,0.571322,0.679210,0.987073,1.194913,1.102727,0.610515,0.318277,0.526012,1.033720,0.741401,0.649052,0.456675,0.664269,0.571832,0.379365,0.686866,0.594336,0.901774,0.609179,0.216551,-0.176112,-0.168808,0.338460,0.445692,0.452889,0.360048,0.267171,0.274255,0.181301,0.188308,0.195276,0.302203,0.109090,0.115935,-0.177261,0.329500,-0.263782,-0.357107,-0.450477,-0.343891,-0.537351,-0.230857,0.075592,-0.418007,-0.511654,-0.805348,-0.299092,-0.092884,0.213273,0.019380,0.225436,0.031441,-0.162606,-0.156707,-0.050860,-0.145067,-0.639329,-0.333645,-0.628017,-1.122445,-0.816930,-0.611472,-0.606071,-0.500729,0.104555,0.209779,0.114944,-0.179952,-0.374909,-0.169928,0.434992,0.739849,0.544643,0.549373,0.454039,0.658641,0.663178,0.367648,0.172053,0.176391,0.580662,0.184865,0.389000,-0.206933,-0.802936,-0.699008,-0.395151,-0.191364,-0.387648,-0.384003,-0.080431,-0.376931,-0.473504,-0.270150,-0.366870,-0.263664,-0.160533,0.142524,0.145504,0.048409,0.151237,0.153989,-0.043336,0.359261,0.061780,-0.135779,-0.033417,0.568866,0.471069,0.273193,0.075237,0.677200,0.479083,0.680884,0.582604,0.284242,0.085797,0.087271,0.088661,-0.110031,-0.108807,-0.007666,-0.006610,0.194363,0.495251,0.596055,0.796774,0.897407,0.897955,0.998418,0.798795,0.799086,0.899291,1.599409,1.499441,0.899386,0.599244,0.399015,0.598699,0.298296,0.197805,0.097227,0.596561,1.095808,1.694966,1.694037,0.793020,0.891914,0.990721,0.989439,0.888070,1.086612,1.185066,0.683431,0.881709,0.979898,1.178000,0.876013,0.673938,0.571775,0.569525,0.667186,0.864760,0.762246,0.559645,0.256956,0.254180,0.151317,0.348367,0.545330,0.742207,0.838997,0.835701,0.532319,0.328852,0.225299,0.321660,0.517937,0.314129,0.110236,0.006260,-0.197800,-0.101944,-0.606171,-0.610481,-0.414873,-0.119348,-0.023904,-0.128541,-0.733259,-0.938058,-1.242936,-1.147894,-0.952932,-0.658048,-0.063242,-0.268514,-0.773863,-0.979289,-0.584790,-0.390368,-0.296020,-0.301747,-0.107548,0.086578,-0.319368,-0.525387,-0.231477,-0.437638,-0.243869,-0.750169,-0.656538,-0.562975,-0.269479,-0.476051,-0.482687,-0.389389,-0.796156,-1.202986,-1.409879,-1.616834,-1.423850,-2.030926,-1.838062,-1.445257,-1.552509,-1.559819,-1.867184,-1.474605,-0.882080,-1.089609,-1.197189,-1.404822,-1.312505,-1.020237,-1.228018,-1.135847,-1.143722,-0.751643,-0.559609,-1.067618,-1.075670,-1.083763,-0.491896,-0.400069,-0.808280,-1.016528,-1.224812,-0.933130,-0.941483,-0.549868,-0.758285,-1.466732,-1.475208,-1.483713,-1.292243,-1.100800,-1.109381,-0.717985,-0.626611,-0.735257,-1.143923,-1.152608,-1.061309,-1.270026,-1.478757,-1.687502,-1.596258,-1.405025,-1.613801,-1.922585,-1.831376,-1.740171,-1.248971,-0.457774,-0.866578,-1.075381,-1.084183,-0.692983,-0.701778,-1.010568,-1.119351,-0.828126,-0.436891,-0.845645,-1.154386,-1.263114,-1.171826,-1.280522,-1.289200,-1.397858,-0.806496,-0.415111,-0.923702,-1.232269,-0.940809,-0.449321,-0.257803,-0.666255,-0.674675,-0.883061,-0.291412,-0.799727,-1.108004,-1.016241,-0.524438,-0.032593,0.159296,-0.048770,-0.156790,0.035238,-0.172685,-0.180557,-0.088378,-0.196145,-0.403857,-0.411513,-0.019112,0.173349,-0.034131,-0.541549,-0.648904,-0.056194,0.236581,0.129423,-0.577666,-0.484686,-0.491635,-0.398511,-0.405314,-0.212042,-0.318693,-0.725268,-0.331763,0.061821,-0.144513,-0.050765,-0.556933,-0.563016,-0.969013,-0.774923,-0.980744,-0.486476,-0.292117,-0.197666,-0.103122,-0.108483,0.086250,-0.018920,-0.123993,-0.128967,-0.633842,-0.838616,-0.643289,-0.947859,-0.752326,-0.656688,-0.560945,-0.365096,0.230860,0.226925,-0.076902,0.519381,0.915775,0.812280,0.708898,0.205628,0.602472,0.899431,0.996504,0.793693,0.490999,0.488422,0.985962,1.083621,0.981398,0.579295,0.277312,0.075449,-0.126293,-0.127914,-0.029413,-0.030790,0.067956,0.366824,0.265815,-0.035071,-0.135832,-0.036470,0.363016,0.462626,0.562360,0.562219,0.462203,0.162311,0.562544,0.562901,0.363383,0.163989,0.564720,0.665574,0.666553,0.567656,0.468883,0.670233,1.071706,1.273301,0.875019,0.876859,0.478821,0.680904,1.083107,1.285431,1.287874,0.790435,0.993115,1.195913,1.398827,1.301858,1.305004,0.908264,1.011638,1.515124,1.718723,1.222432,0.926251,1.030178,1.534213,1.538355,1.142602,1.246953,1.651407,1.055962,0.660618,1.065373,1.670224,1.175172,0.980214,1.085350,0.990576,1.095892,0.901296,0.906787,1.212362,1.818020,2.023759,1.629576,1.135471,1.441441,1.147484,1.453599,1.459782,1.666032,1.772347,1.678724,1.585161,1.591656,1.298206,1.904809,1.611463,1.718165,1.424912,0.931702,0.938532,0.645400,0.752303,1.059237,0.966201,0.973190,0.980204,0.987237,0.894288,0.701353,0.608429,0.015513,0.422602,0.929692,1.036780,0.443863,0.350938,0.358000,0.265047,0.372075,0.679079,0.286058,-0.006994,-0.000080,0.306797,-0.286368,-0.479579,-0.772838,-0.066152,0.040478,0.247045,0.353547,0.559979,0.866337,0.372616,0.178812,-0.115079,0.090939,0.296860,0.402680,0.508395,1.214000,1.019490,0.424860,-0.069894,-0.164777,0.040206,-0.054950,-0.050251,0.054299,0.158695,0.562932,0.467004,0.270905,0.474632,0.378178,0.581537,0.484705,0.887676,0.490444,-0.306996,-0.404650,-0.202525,-0.100624,-0.098956,-0.197524,0.203664,0.404603,0.205286,0.105708,-0.394138,-0.394257,-0.694657,-0.895343,-0.796322,-0.197600,-0.199183,-0.101079,-0.003294,-0.305834,-0.308707,-0.311918,-0.315475,-0.319384,-0.423652,-0.528287,-0.833295,-0.638684,-0.444460,-0.750630,-0.857203,-0.764184,-0.571582,-1.279404,-1.087657,-1.196348,-0.505486,-0.915077,-0.625130,-0.935651,-1.046650,-1.158133,-0.870108,-0.382584,-0.595568,-0.909069,-1.123093,-0.937650,-0.852748,-0.368394,-0.584597,-0.601366,-1.018708,-0.936632,-0.855147,-0.674261,-0.093983,-0.314321,-0.535284,-0.556881,-0.679120,-0.702011,-0.725561,-0.849781,-0.774679,-0.700265,-0.726546,-0.553533,-0.181235,0.190339,0.261180,0.031278,-0.599375,0.069210,0.737023,0.304057,-0.329700
1,3,0.535942,0.441192,0.646436,0.951674,1.056907,1.062132,0.567352,0.772563,0.677767,0.282963,0.288150,0.193328,0.498497,0.503656,0.208804,0.013942,-0.080932,0.424183,0.829286,0.534376,0.039454,0.144518,0.349568,-0.245395,-0.040373,0.264634,0.069625,-0.025399,-0.120440,-0.215497,-0.410571,-0.505662,-0.400771,-0.595899,-0.991045,-1.086210,-1.081395,-0.976599,-1.471824,-1.767069,-1.362335,-0.957622,-0.452932,-0.648263,-0.943617,-1.038993,-1.234393,-1.129816,-1.125264,-1.620735,-1.616232,-1.211753,-1.107300,-1.102872,-1.198470,-0.794095,-0.489747,-0.585425,-0.381131,-0.576865,-0.072627,-0.168417,-0.664235,-0.860083,-0.555960,-0.151867,-0.147803,-0.243770,-0.539767,-0.335795,-0.031854,-0.327945,-0.124066,-0.320220,-0.116406,0.187376,-0.108875,-0.205159,-0.501476,-0.597827,-0.494211,-0.290629,-0.787081,-0.683567,-0.980088,-0.876644,-0.473234,-0.169860,0.033479,-0.163218,0.240050,0.443281,0.346476,-0.050364,0.152758,0.655844,0.358893,0.261905,0.264880,0.467818,0.570719,0.273581,0.076407,0.079194,0.181943,-0.015345,-0.112672,-0.110037,-0.307441,-0.204882,-0.102363,-0.199882,-0.497440,-0.695036,-0.892671,-0.590346,-0.688059,-0.785811,-0.683603,0.118567,0.320697,0.022788,-0.475160,-0.673147,-0.371174,-0.269239,-0.167344,-0.165489,-0.263672,-0.261895,-0.060158,-0.158459,-0.056800,0.144821,0.046402,0.047944,-0.150553,-0.249089,-0.247664,-0.446278,-0.444931,-0.443622,-0.242352,-0.141121,-0.339928,-0.338774,-0.237658,-0.036580,0.164460,0.365461,0.266425,0.267351,0.368240,0.169091,-0.130096,-0.129320,0.271420,0.272122,-0.027213,-0.726584,-0.825991,-0.225435,0.075085,0.375569,0.276017,-0.123570,-0.423193,0.077149,0.377456,0.477728,0.177966,-0.221831,-0.221662,-0.021527,0.178574,0.478642,0.578677,0.478678,0.178647,-0.121417,-0.121513,0.078359,0.078199,-0.421993,-0.622216,-0.822470,-0.422755,-0.523070,-0.423415,-0.023791,0.375804,0.175370,0.274906,0.274414,0.873893,0.673344,0.672766,0.372162,-0.128470,0.070871,-0.129815,0.069473,-0.531265,-0.332029,-0.132819,0.066367,-0.134473,-0.535337,-0.336225,-0.437136,-0.238072,-0.439030,-0.440011,-0.241015,-0.442041,-0.443088,-0.644157,-0.645248,-0.946358,-1.047490,-0.648641,-0.549812,-0.751003,-0.652212,-0.353440,-0.154687,-0.055951,-0.057233,-0.458532,-0.659848,-0.861181,-0.462529,-0.163894,-0.265274,-0.366669,-0.068078,0.030497,0.029059,0.127608,0.326143,-0.075335,-0.276825,-0.778328,-0.279842,-0.081368,-0.482905,-0.984453,-0.586011,-0.287579,-0.389157,-0.390744,-0.392340,-0.093945,0.004442,-0.497179,-0.798808,-0.900443,-0.702086,-0.503735,-0.905390,-0.607052,-1.008718,-0.410390,-0.612067,-0.713748,-1.115433,-1.217123,-0.818815,-0.420511,-0.522210,-0.623911,-1.025615,-0.827320,-0.529028,-0.430736,-0.432445,-0.734155,-0.235866,-0.137576,-0.139287,-0.340997,-0.142706,-0.144414,-0.146121,-0.547826,-0.249529,-0.051230,0.347071,0.445375,0.143682,0.741992,0.640306,0.238623,0.136944,0.335270,0.533599,0.531934,0.230273,0.128617,0.026966,0.025321,0.123682,0.322048,0.520421,0.418799,0.517185,0.015576,0.213975,0.312381,0.410793,0.509213,0.407641,0.306076,0.404518,0.702969,1.001427,0.699894,0.598369,0.296852,0.695344,1.393844,0.892353,0.890871,0.989397,1.087932,0.886477,0.785030,0.783593,0.782164,0.880745,1.579335,1.077935,0.776544,0.475162,0.873789,1.072426,1.071072,1.069728,0.968393,0.567068,0.665751,0.664445,0.863147,0.761859,0.560580,0.459310,0.558049,0.356797,0.355555,0.954321,0.753096,0.651880,0.450673,0.549474,0.548283,0.547101,0.845927,0.844762,0.743604,0.742454,0.741312,1.240178,1.239050,1.437931,1.836818,2.035712,1.634613,1.533521,1.532435,1.431355,1.630281,1.629213,1.228150,1.327093,1.026041,1.224994,1.223952,0.922914,1.321881,1.720851,1.419825,1.418803,1.617784,0.916768,0.715755,0.814744,1.013735,0.912728,1.111722,1.210718,0.909715,1.508712,1.307710,1.106708,1.205706,1.304703,1.703699,1.002694,0.901688,1.600679,1.999669,1.698656,1.197640,0.896621,0.795598,0.794571,0.793540,1.292505,1.391464,0.690418,0.289366,0.188309,0.187244,0.386173,0.185095,0.184009,0.082916,-0.118187,-0.419297,-0.420417,-0.421547,-0.622686,-0.823836,-1.024996,-1.226167,-0.927350,-0.828544,-1.029751,-1.230970,-1.032202,-1.033448,-1.234707,-1.135981,-1.437269,-1.738572,-1.739891,-1.641225,-1.542575,-1.543942,-1.645326,-1.846727,-1.448146,-1.649583,-1.151039,-1.452513,-1.354007,-1.355520,-1.357053,-1.658607,-1.660182,-1.261777,-0.463395,-0.765034,-1.166696,-1.468380,-1.370087,-0.971818,-0.573573,-0.375352,-0.377155,-0.478983,-0.580837,-0.682716,-0.684621,-0.786552,-0.888510,-0.590495,-0.392507,-0.494547,-0.496615,-0.698712,-0.300836,-0.602990,-0.505173,-0.507386,-0.209629,-0.311902,-0.814205,-0.916540,-0.918905,-0.421302,-0.123730,-0.126191,-0.328683,-0.231208,0.266234,0.363642,0.261018,-0.041640,0.555668,0.352943,0.250182,0.147388,-0.055442,0.541694,0.738794,0.835859,0.032889,0.229882,0.326840,0.323761,0.120646,0.017494,-0.285694,-0.188920,-0.392182,-0.495482,0.001181,0.297806,0.494394,0.490944,0.187456,0.383930,0.880365,1.176763,0.973122,0.669442,0.965724,0.661968,0.958172,0.554338,0.150465,-0.153447,-0.157398,0.238612,0.334582,0.130514,0.426407,0.222261,-0.081925,-0.186150,-0.090414,-0.194717,-0.099059,-0.403440,-0.707861,-1.212320,-1.016818,-0.921356,-0.625932,-0.730547,-0.735201,-0.639893,-0.944624,-1.249394,-1.454202,-1.059048,-1.163932,-1.068855,-1.073815,-1.178813,-1.483849,-1.788923,-1.494033,-1.199181,-1.104366,-1.409588,-1.214847,-0.920142,-0.425473,-0.330841,-0.436244,-0.241683,-0.147158,-0.352668,-0.358212,-0.363792,-0.569406,-0.575054,-0.480736,-0.386452,-0.392202,-0.397984,-0.503800,-0.609648,-0.615528,-0.121440,0.172616,-0.233359,-0.939366,-0.945403,-1.251470,-0.757567,-0.963694,-0.569851,-0.376036,-0.382250,-0.088492,0.005239,-0.301059,-0.307383,-0.313734,-0.120111,-0.126514,-0.132942,-0.339396,-0.145874,-0.252376,0.041098,0.134549,-0.372023,-0.578617,-0.585234,-0.491871,-0.598530,-0.705209,-0.211909,-0.518628,-0.525366,-0.032123,-0.238898,-0.645690,-1.052500,-0.759326,-0.466168,-0.073026,0.120100,-0.386787,-0.093689,-0.300604,-0.407533,-0.314473,-0.021426,-0.328390,-0.135365,-0.442351,-0.549346,-0.456350,0.036637,0.029616,-0.177412,-0.184448,-0.191490,-0.098537,-0.005590,0.387352,0.680290,0.773225,0.566157,0.559086,0.752013,0.744940,0.937865,0.930791,0.923717,1.116645,0.609574,0.402505,0.295439,0.388377,0.581319,0.774266,0.867218,0.660176,0.553140,0.346111,0.339090,0.832078,1.125074,1.218080,0.611096,0.304122,0.597160,0.790210,0.483272,0.076347,0.069436,0.262540,0.555658,0.648791,0.141941,-0.064893,-0.271709,-0.078507,0.214712,0.507951,0.301210,0.094488,0.087788,0.581109,0.474451,0.067817,-0.138795,-0.045383,-0.051947,-0.158486,-0.064999,-0.171487,0.422052,0.615618,0.109212,-0.097167,-0.203516,0.190164,0.483873,0.477613,0.271384,0.565186,0.159021,-0.247113,-0.153213,-0.059279,-0.365312,-0.271310,-0.277272,-0.183200,0.110909,0.105055,-0.000762,-0.306542,-0.312284,-0.117987,0.076350,-0.329275,-0.134859,-0.140403,-0.345906,-0.951367,-0.756787,-0.462164,-0.267499,-0.572790,-0.578038,-0.583241,-0.588401,-0.493515,0.001416,0.096393,-0.008584,-0.113515,-0.318399,-0.223235,-0.028024,0.267236,0.362543,0.457900,0.453306,-0.051239,-0.055734,-0.360179,0.135427,0.431084,0.326791,0.322551,0.018362,-0.185775,-0.089860,-0.493891,-0.097870,0.398204,0.394332,0.290514,-0.013250,-0.416960,-0.320615,-0.124216,-0.027761,0.268748,-0.034686,-0.038066,0.258611,0.255344,0.752133,0.848979,0.645881,1.042840,0.939856,0.236929,0.034059,0.331247,0.728492,0.825795,0.923156,0.720575,0.818052,0.915586,0.813180,0.510831,0.208541,0.006309,0.404136,0.602021,0.599965,0.797968,0.696029,0.794149,0.892328,1.490566,1.588862,0.787217,1.085631,0.884104,1.182635,0.881225,0.379874,0.278581,0.277347,0.676172,0.775055,0.573996,0.772996,0.872053,0.371169,-0.029657,-0.030425,-0.331135,0.268212,0.367617,0.167079,-0.033401,0.466175,0.765809,0.565499,-0.134754,-0.234950,0.164909,0.264825,0.164797,0.364824,0.164907,0.165045,0.265238,0.465486,0.665789,0.566145,0.666556,0.467021,-0.032461,0.168111,0.568735,0.269413,0.370142,0.470924,0.171758,0.072644,0.073580,0.174568,0.175606,0.476694,1.277833,0.979021,0.580258,0.181545,0.182879,0.284263,0.385694,0.687172,0.488698,0.390270,-0.108111,-0.306447,-0.704737,-0.202981,-0.201181,-0.199337,-0.497448,0.004484,0.106459,0.108477,0.310537,0.012639,-0.285218,0.016966,0.319191,0.721455,0.423760,0.526103,0.428485,0.230905,0.333363,0.335858,0.038390,0.040959,0.043563,-0.153798,-0.151124,-0.348415,-0.145672,0.357103,0.559912,-0.037247,-0.234374,-0.131470,0.071465,0.174430,-0.022575,0.080449,-0.516498,0.086583,0.289692,-0.107172,0.095991,-0.400820,-0.597606,-0.594366,-0.491102,0.112186,-0.284503,-0.281169,-0.377813,-0.474434,-0.871035,-1.167614,-0.764174,-0.760714,-0.657235,-0.653737,-0.750222,-0.946689,-1.143139,-1.039573,-1.235991,-0.832394,-0.628782,-0.625156,-0.521516,-0.517864,-0.714199,-1.210522,-1.306834,-0.803135,-0.899426,-0.895707,-0.791979,-0.488242,-0.484498,-0.580745,-0.576986,-0.373221,-0.369449,-0.365673,-0.561891,-0.358105,-0.254316,-0.450524,-0.246728,0.057069,0.160868,0.464667,0.068468,0.072268,0.376067,0.079866,-0.016338,0.187457,0.091249,-0.204962,-0.301177,-0.297397,-0.193621,-0.289850,-0.286085,-0.382327,-0.578575,-0.474831,-0.771094,-0.667366,-0.763646,-0.759936,-0.456236,-0.152545,-0.148866,-0.245198,-0.541541,-0.737897,-0.534266,-0.030647,0.372958,0.376548,-0.419875,0.183686,-0.212768,0.190762,0.494275,0.497772,0.501252,0.404713,0.508157,0.611582,0.414989,0.418376,0.221743,0.625090,0.728416,0.631721,0.735005,0.938267,1.241507,1.244724,0.847918,0.751089,0.654236,0.757359,0.860457,1.063530,1.566579,1.669601,1.272598,0.775568,0.378512,0.181428,0.284317,0.887179,0.790013,1.092818,1.095594,1.198342,0.901060,0.503749,0.906408,1.309037,1.011635,0.414203,0.116739,-0.180755,-0.378282,0.024160,0.126570,-0.171053,-0.668708,-0.566396,-0.464117,0.038128,0.140340,0.042519,0.144663,0.346773,0.448848,0.250889,0.152895,-0.045134,0.156802,-0.441297,-0.139433,0.162396,0.064190,-0.034053,-0.432333,-0.630648,-0.829000,-0.927389,-0.825815,-0.424277,-0.222777,-0.321314,-0.619888,-1.118500,-1.017149,-0.615836,-0.914560,-1.113323,-1.012123,-0.810961,-0.809837,-1.308752,-1.307704,-1.306695,-1.305724,-1.304792,-1.003897,-0.803042,-0.502224,-1.101445,-1.600705,-1.500003,-1.299340,-0.798715,-0.598128,-0.697581,-1.097071,-0.996600,-0.796168,-0.795774,-0.995418,-1.195101,-1.294822,-0.994582,-0.594379,-1.094215,-1.194089,-1.194001,-1.093951,-1.493939,-1.093965,-0.794029,-0.394130,-0.694269,-0.894445,-0.994658,-1.194909,-1.595198,-1.595523,-1.195885,-0.596284,-0.996719,-1.097192,-1.197700,-0.998245,-1.098826,-0.899443,-0.600096,-0.700785,-0.901509,-1.002269,-0.803064,-1.003894,-0.704759,-0.705659,-0.606593,-0.207562,-0.208564,-0.409601,-0.710672,-0.611776,-0.712914,-0.414085,-0.415289,-0.516526,-0.417796,-0.319098,-0.620432,-1.021799,-0.823197,-0.224627,0.173912,0.072420,0.070897,-0.330657,0.067758,0.266143,0.164498,0.362823,0.361119,0.159385,-0.042377,0.055831,0.454010,0.852162,0.950285,0.948380,0.646447,0.144487,0.042499,0.240485,0.138444,0.436376,0.534282,0.432163,0.530017,0.527846,0.425649,0.323428,0.221181,0.318911,0.416615,0.214296,0.211953,0.409587,0.507197,0.304784,-0.397652,-0.200111,0.297409,-0.105094,-0.107619,-0.110165,-0.012733,-0.215322,0.082068,-0.320562,-0.023213,0.274116,-0.128575,0.068714,0.265984,0.063235,-0.239534,-0.342321,0.054873,0.452049,0.849207,0.046346,-0.056531,0.440573,0.737661,0.834731,0.831785,0.728822,0.725843,0.822847,0.719836,0.516809,0.313766,0.710709,0.807636,1.104548,0.701445,0.998328,1.195197,1.492051,1.088892,0.685719,0.782532,0.879332,0.576119,0.772893,0.669654,0.766402,0.763138,1.059862,1.156574,1.253274,1.249962,1.046639,0.843304,1.139958,1.236601,1.033233,0.729855,0.726466,1.123066,1.019657,0.916237,0.812808,0.809368,1.405920,0.802461,0.698994,0.595517,0.592032,0.888538,0.785035,0.681523,0.678004,0.774476,0.670940,0.967396,0.763844,0.860285,1.056718,1.253144,1.349563,1.145975,0.742380,0.738778,0.335170,0.331555,0.827935,0.624308,0.720675,1.417036,1.713391,1.309741,1.206086,1.102426,1.998760,1.595090,1.591415,1.287735,1.884051,1.980362,2.176670,2.172974,1.669274,1.565570,1.761863,1.458153,1.154440,0.750724,0.547006,0.743285,0.939561,0.835836,0.832109,0.928380,0.824650,0.720918,0.917186,0.913453,0.609719,0.505985,0.802250,0.898516,0.794782,1.091049,0.787317,0.283586,-0.220143,-0.123871,0.072403,0.168679,0.364958,0.261240,0.057525,-0.446187,-0.349895,-0.053598,-0.157297,-0.060992,0.335319,0.331635,0.027957,-0.175714,-0.279379,-0.183037,-0.086688,0.009670,0.106035,-0.097591,-0.001207,-0.404814,-0.308412,-0.011998,-0.015574,0.080862,-0.422690,-0.226230,-0.029757,-0.033270,-0.136769,0.059746,0.156276,0.052823,0.149385,0.145965,0.042562,0.139177,-0.264189,-0.167535,0.129138,-0.274167,0.022548,0.019287,0.116048,-0.087168,-0.290359,-0.493524,-1.096664,-1.399777,-1.502863,-1.705920,-1.708948,-1.711946,-1.714913,-1.317849,-1.220751,-1.723620,-1.926455,-1.529254,-1.432017,-1.734742,-1.937429,-2.140076,-1.542683,-1.445249,-1.247772,-1.450251,-1.352686,-1.555075,-1.557417,-1.259710,-1.161955,-0.964149,-1.066291,-0.968381,-1.070416,-0.772396,-0.574319,-0.576184,-0.577990,-0.579735,-0.181418,0.116962,0.115408,-0.086081,-0.287502,-0.188854,-0.490135,-0.491345,-0.692480,-0.593541,-0.494525,-0.195430,-0.196256,-0.697000,-1.297660,-1.398236,-0.898726,-0.999127,-0.999439,-0.799658,-0.999784,-1.099815,-1.299749,-1.199583,-1.499317,-1.398949,-1.098475,-1.197895,-1.397207,-1.496408,-0.995497,-0.794471,-0.893329,-1.292068,-1.190686,-0.989182,-0.687553,-1.185797,-1.183911,-1.281894,-0.779743,-0.577457,-0.475032,-0.772466,-0.569758,-0.266905,0.036096,-0.360753,-0.357450,-0.353991,-0.350376,-0.246601,-0.042664,-0.138562,-0.134292,-0.229853,-0.425241,-0.220453,-0.015488,-0.110343,-0.605014,-0.699499,-1.093796,-1.387901,-1.381812,-1.475525,-1.469039,-0.862349,-0.255454,0.151649,0.358965,-0.133505,-0.725758,-0.517790,-0.509598,-0.401179,-0.492531,-0.483649,-0.174531,-0.065175,-0.355575,-0.645730,-0.035636,0.374711,0.585313,0.596174,0.407297,0.818685,0.830343,0.542273,0.954479,1.066964,0.879732,0.292787,0.206131,0.219769,0.333704,0.547939,1.062479,0.777327,0.592487,0.607962,0.623756,0.839873,0.856317,0.473092,0.590201,0.607648,0.825437,1.143573,1.262058,1.280898,1.100095,0.819655,0.839581,1.159877,1.380547,1.401595,1.523026,1.544844,1.667053,1.589657,1.112660,0.536067,0.759881,0.584108,1.008752,0.633816,0.659306
1,3,-0.212395,-0.301286,-0.290155,-0.179004,-0.567832,-0.656641,-0.845430,-1.134200,-1.322952,-1.511687,-1.300405,-1.589106,-1.477791,-1.466461,-1.555116,-1.943757,-1.932385,-2.020999,-2.309601,-2.098191,-2.286770,-2.375338,-2.163896,-1.952444,-1.740984,-1.829515,-1.318038,-1.306554,-1.395063,-1.383566,-1.472063,-1.660556,-1.149044,-1.237529,-1.326010,-1.714489,-1.502965,-1.091440,-0.879915,-0.968389,-0.656863,-0.545338,-0.733815,-1.222294,-1.010775,-0.799260,-0.887748,-0.776241,-0.664738,-0.353241,-0.241750,-0.630266,-0.718789,-0.607320,-0.095859,0.015593,-0.172964,-0.561532,-0.150110,0.061301,0.172699,-0.015914,0.195460,0.006820,0.018166,0.129498,0.040814,-0.247885,-0.236601,-0.225333,0.285918,0.597150,0.308364,-0.280441,0.030735,-0.258110,0.053025,0.064139,-0.324769,-0.313699,-0.002652,0.508372,0.419372,0.130347,-0.358702,0.152223,0.163123,0.173996,0.084842,0.195660,0.406451,0.417212,0.327945,0.138649,0.449322,0.659965,0.370577,0.381157,0.091705,-0.097779,-0.087297,-0.376848,-0.066433,0.443948,0.554294,0.864604,1.074878,1.285116,0.895317,1.005480,0.715606,0.825693,1.235742,0.945751,0.455721,0.165651,0.575540,1.185388,1.395194,0.804959,0.714681,0.824360,0.733996,0.543589,-0.046863,-0.037359,0.172100,0.281513,0.290881,0.300203,-0.090523,-0.181295,0.227886,0.837018,0.846102,0.755138,0.564124,0.773061,0.881949,0.790786,0.799572,0.808308,0.816992,0.125624,-0.165795,0.142733,0.051208,-0.040371,-0.532002,-0.423688,-0.415428,-0.307222,-0.599071,-0.990976,-0.782936,-0.574952,-0.567024,-0.459153,-0.351339,-0.743582,-0.835883,-0.328242,-0.320658,-0.313133,-0.205667,0.301740,0.009087,-0.083625,-0.376397,-0.569229,-0.062122,-0.455075,-0.648089,-0.341165,-0.034303,0.072498,-0.320763,-0.514087,-0.507473,-0.800922,-1.394435,-1.288010,-0.881649,-0.675352,-0.969119,-0.962950,-0.156846,-0.050806,-0.544832,-0.138922,-0.433077,-0.427299,-0.521585,-0.315938,-0.010357,-0.504842,-0.699394,-0.594012,-0.688697,-0.783449,-0.678268,-0.173154,-0.068108,0.236870,0.041781,-0.053376,0.251399,0.256105,-0.039256,-0.734686,-0.730185,-0.125753,-0.421389,-0.617094,-0.812869,-0.808712,-0.204625,0.499393,0.503341,0.007220,-0.088971,0.114768,0.118438,0.022037,-0.374433,-0.070973,0.032416,0.235735,-0.061016,-0.057837,-0.154728,-0.051691,0.351277,0.354174,0.357001,0.659757,0.562442,0.365057,0.667601,0.370074,0.172477,-0.225191,0.177071,0.379262,0.481382,0.583431,0.785410,0.887318,0.989155,0.590922,0.392618,0.494244,0.495799,0.697283,0.498697,0.400041,0.101314,0.102517,0.203649,0.104712,0.405704,0.606626,0.807478,0.208260,0.508971,0.709614,0.510186,0.710689,0.611122,1.011485,0.911780,1.112004,0.712160,0.412247,0.512264,0.512213,0.412093,0.111904,0.211647,0.511322,0.310928,0.210466,-0.490064,-0.690662,-0.691327,-0.592060,-0.892861,-0.893729,-0.594663,-0.395665,-0.496734,-0.197869,0.300930,0.299662,-0.001671,-0.203071,-0.104536,-0.106067,-0.007663,-0.109324,-0.011050,-0.312841,0.285304,-0.316616,-0.218599,-0.420647,-0.522758,-0.224932,-0.327169,-0.229470,0.168167,0.265742,0.463254,0.360705,0.458094,0.755421,0.652687,0.449892,0.547037,0.644121,0.641146,0.638110,0.235015,0.031861,0.128648,0.325376,0.322045,-0.281343,-0.184789,0.111707,-0.391853,-0.595471,-0.599145,-0.302875,0.093339,-0.210502,0.385601,0.381649,0.777643,0.573583,0.669469,0.765301,0.961081,0.656807,0.752481,0.548104,0.343674,0.239193,0.534661,0.530079,0.625447,0.720764,0.516033,0.511252,0.706423,0.901546,1.396621,0.891648,0.786629,1.081563,1.376451,1.171293,0.466090,0.060842,0.055550,-0.149787,-0.455167,-0.660590,-0.666055,-0.071563,-0.077112,-0.082703,-0.488335,-0.594006,-0.399718,-0.105469,-0.211259,-0.717088,-0.322955,-0.328858,-0.634799,-0.740777,-0.946790,-0.552839,-0.558923,-0.765042,-0.771194,-0.477380,-0.283599,-0.889850,-0.696133,-1.102447,-1.208793,-0.915168,-0.621574,-0.828008,-0.834471,-1.240963,-1.347482,-1.254028,-0.460600,-0.267199,-0.373823,-1.180471,-0.987144,-0.393840,-0.300560,-0.307302,-0.714066,-0.620851,-0.527657,-0.534483,-0.541329,0.051806,0.344923,0.238022,0.131104,0.024170,0.217219,-0.089747,0.203272,0.096277,0.289269,-0.117752,-0.024786,-0.331831,-0.138887,0.254047,0.446970,0.239885,-0.267209,0.025689,0.318580,0.411465,-0.095657,-0.202784,-0.209915,0.082950,0.575811,-0.031331,-0.438474,-0.245619,-0.252765,-0.259910,-0.567055,-0.674199,-0.781341,-0.588480,-0.695617,-0.502749,-0.809876,-0.716999,-0.724115,-0.431225,-0.638328,-0.345423,-0.252509,-0.159586,0.233347,-0.173709,-0.280754,0.012212,0.405192,0.798185,0.691191,0.284213,0.377249,0.670302,0.563371,0.156458,-0.050438,-0.257314,0.235829,0.028991,0.022175,-0.184621,0.308606,-0.098144,-0.504871,-0.811574,-0.318253,-0.324906,-0.531532,-0.738133,-0.444705,-0.551250,-0.357766,-0.564253,-0.270710,-0.677136,-0.583530,-0.589893,-0.696223,-0.602520,-0.608783,-0.315011,-0.521205,-0.527362,-0.633483,-0.939567,-0.845613,-0.551620,-0.257589,0.036482,0.130593,-0.375255,-0.481061,-0.586826,-0.292548,-0.398226,-0.203861,-0.509451,-0.514996,-0.220495,-0.125948,-0.231355,0.063287,-0.142024,-0.347287,-0.652500,-0.757663,-0.662776,-0.167839,-0.072850,-0.377809,-0.582716,-0.687569,-1.192370,-1.097116,-0.301808,-0.106444,-0.411025,-0.215550,-0.920019,-0.524430,-0.628784,-1.033080,-0.637317,-0.441495,-0.545614,-0.649673,-0.353672,-0.457610,-0.861486,-0.865301,-0.469054,-0.272744,-0.176371,-0.679935,-0.983436,-0.986872,-0.690243,-0.493550,0.003208,0.100033,-0.403077,-0.406121,-0.209097,-0.112007,-0.414849,0.082376,0.279669,-0.022969,0.074461,0.171960,0.169528,0.367166,0.464873,0.362651,0.060498,-0.141584,0.156405,0.454465,0.452595,0.350797,0.549071,0.247416,0.245834,0.244323,0.742885,0.941518,1.240225,1.139004,1.237856,0.536781,0.635779,1.034850,1.433994,1.133212,0.832503,0.931867,1.131305,0.530817,0.430402,0.430061,0.929793,1.429599,1.729479,2.129432,1.929459,1.529559,1.229733,1.029980,1.030301,1.630695,2.431163,2.431703,1.632317,1.033004,1.133763,1.234596,0.935501,1.336478,1.637528,1.538649,1.039843,0.841109,0.742446,0.843854,1.145334,1.246884,1.248506,0.650198,0.451959,0.353791,0.355693,0.557664,0.559704,1.061813,0.963991,0.366236,0.468550,0.670931,0.773379,0.875894,0.378476,0.881123,0.983837,1.086615,1.589459,1.392367,0.895339,0.898375,0.601474,1.004636,1.107861,1.511147,1.514495,1.517903,0.921373,0.624902,0.728490,0.932138,0.835844,0.639608,0.543429,0.647308,0.551242,0.355233,0.259278,0.363379,0.367533,0.371741,0.076002,-0.419685,-0.215321,0.289095,0.293562,-0.201922,-0.297357,0.007257,0.211919,0.116628,0.021384,-0.073814,-0.368967,-0.364075,-0.059140,0.445839,0.250861,0.155924,0.161029,0.066174,0.171359,0.276583,0.381845,0.387145,0.592482,0.597855,0.303263,0.308706,0.314183,0.319693,0.325236,0.130810,0.136415,0.142051,0.347715,0.253409,-0.040870,-0.235122,-0.429348,-0.523548,-0.417723,-1.111875,-1.206003,-1.000109,-0.694194,-0.888257,-0.982301,-1.476326,-1.370332,-1.564321,-1.558293,-1.252249,-0.946190,-0.840117,-0.934030,-1.027931,-0.521820,-0.615698,-0.709565,-1.103423,-1.097272,-0.791114,-0.684949,-0.478777,-0.272600,-0.466419,-0.560234,-0.554045,-0.447855,-0.341664,-0.235472,-0.329280,-0.323089,-0.016901,-0.010715,-0.304532,-0.498354,-0.392181,-0.186014,-0.179854,-0.173701,0.132443,0.238579,0.444704,0.050819,0.156923,-0.136986,0.169092,0.075156,0.081206,0.487241,0.393259,0.099261,0.005245,-0.088789,-0.082842,-0.076915,0.228991,0.234876,0.140739,-0.053421,-0.647604,-0.541811,-0.236044,-0.230302,-0.524586,-0.618897,-0.513236,-0.507604,-0.702000,-0.296426,-0.090883,-0.185371,-0.179891,0.125557,-0.069028,-0.163647,-0.258300,-0.352988,-0.747712,-0.642472,-0.737269,-0.332103,-0.426976,-0.421887,-0.416837,-0.411827,-0.706858,-0.501930,-0.397043,-0.092198,-0.087396,-0.082637,-0.077922,0.226749,0.431375,0.535956,0.840491,0.644980,0.749422,0.453816,0.758163,0.362462,-0.033287,0.170914,0.575065,1.079167,0.783218,0.587218,0.291167,-0.004935,0.798910,0.602703,0.106444,0.210131,0.213764,0.317344,0.120870,0.024341,-0.172243,-0.168882,0.434424,0.437673,0.240867,0.144004,-0.052915,-0.149891,-0.446925,-0.544015,-0.841164,-0.938370,-0.335634,-0.232956,-0.430337,-0.327777,-0.425275,-0.622833,-0.220449,0.081875,-0.115860,-0.213655,0.288490,0.090576,-0.007398,-0.105433,-0.103527,-0.201682,-0.299897,-0.198172,0.003493,0.105097,0.106641,0.408124,0.309547,0.110909,-0.187789,-0.186548,-0.285366,-0.384246,-0.483185,-0.682185,-0.381245,-0.880365,-1.379545,-1.178785,-0.878084,-0.377444,-0.776863,-1.076341,-1.275879,-1.275476,-1.575132,-1.174846,-1.374620,-1.574452,-1.674342,-1.274290,-1.574296,-1.174359,-1.474480,-1.474658,-1.074893,-1.475184,-1.775532,-1.675936,-1.176396,-1.276911,-1.577482,-1.278107,-1.278787,-0.979521,-1.080309,-0.481150,-0.482045,-0.582992,-0.983992,-0.585045,-0.486148,-0.387303,-0.688509,-0.689766,-0.591072,-0.192429,-0.293834,-0.795288,-0.996791,-1.098341,-0.399939,-0.401584,-0.503275,-0.405012,-0.106795,-0.008623,0.089505,0.587589,0.385629,0.283626,-0.018419,-0.220506,0.177366,0.775197,0.572987,0.370738,0.168450,0.466123,0.663758,0.261356,-0.141083,-0.243558,-0.146069,-0.248615,0.248805,0.646191,0.143543,-0.159137,-0.261849,-0.364592,-0.067366,-0.170169,0.226997,0.024135,-0.178755,-0.581672,-0.684617,-0.887587,-0.390583,-0.093604,-0.096649,-0.199717,-0.502809,-0.705922,-0.409057,-0.312212,-0.315387,-0.118582,-0.021796,-0.225027,-0.028276,0.168459,0.365178,0.161882,0.358571,0.355246,0.351909,-0.051441,0.345197,1.141825,1.438442,0.935050,0.631649,0.328240,0.424824,0.721401,0.817972,0.714537,0.311099,0.507656,0.704211,0.800763,0.697313,0.393863,0.090412,0.286962,0.583513,0.580066,0.476621,0.073180,0.669743,0.466311,0.262884,-0.240537,-0.043950,0.352643,0.049245,-0.054144,-0.057523,0.239107,0.335749,0.332403,0.229069,-0.074252,-0.177559,-0.180852,-0.084130,0.012608,0.109363,0.106134,0.002924,0.299731,0.296558,0.593405,0.590272,0.587160,0.584069,0.581001,0.777956,0.074934,-0.028063,0.368964,0.466017,0.263096,0.160201,-0.142666,-0.245506,0.051683,0.148901,0.346148,0.943426,0.840734,0.638074,0.735445,1.032849,1.430286,1.327757,1.425262,1.622801,2.020375,1.717985,1.515632,1.513315,1.911035,1.508793,1.406589,1.104424,0.602298,0.700212,0.498166,0.996161,1.194196,1.192274,0.690393,0.688555,0.686760,0.585008,1.083300,0.781636,0.380016,0.578442,0.976913,0.875430,0.773993,0.272602,0.271259,0.469963,0.668714,0.667514,0.466362,0.665258,0.664204,0.763199,0.462244,0.261339,0.360484,0.559679,0.158926,0.458224,0.457574,0.156975,-0.143572,-0.144066,0.355492,0.455103,-0.045233,-0.145516,0.054254,0.254079,0.353957,0.353890,0.053877,-0.546082,0.154014,0.354165,0.654371,0.654632,0.454949,0.055321,0.055749,0.756233,0.956772,0.557368,0.058020,0.258728,0.459493,0.660314,0.461191,0.362125,0.263116,0.264164,0.065269,-0.133570,-0.332352,-0.131076,-0.529744,-0.528354,-0.826908,-0.825404,-1.323844,-1.822226,-1.520551,-1.018819,-1.117031,-0.715185,-0.713282,-0.411322,-0.809306,-0.807232,-1.205102,-1.702916,-1.300672,-1.098372,-1.096016,-1.293604,-1.491135,-1.488610,-1.186029,-0.783392,-0.780700,-0.777952,-1.075148,-1.172289,-0.769375,-0.566407,-0.563383,-0.860304,-0.857172,-0.753985,-0.850744,-1.347449,-1.144100,-0.940698,-1.137243,-1.233735,-1.230174,-0.926560,-0.822895,-1.119177,-1.115408,-1.111587,-0.407715,-0.203793,-0.499819,-0.595796,-0.591722,-0.487599,-0.383426,-0.179204,-0.174934,0.029385,0.233752,0.238167,-0.157371,-0.252862,-0.148307,0.456295,0.460943,0.265636,-0.029626,0.075157,0.179984,0.484855,0.489769,0.194727,0.599727,0.504769,0.709853,0.214978,-0.079856,-0.174650,0.130596,0.235882,-0.258794,0.146569,0.451969,0.457408,0.262883,-0.031606,0.473941,0.579524,0.385141,0.390793,0.396478,0.402197,0.207948,0.513732,1.019546,0.825392,0.731268,0.837173,1.143108,0.949072,0.755063,0.861081,1.067127,1.273198,0.779295,0.885416,0.691562,0.597731,0.603923,0.210137,0.416373,0.222629,0.428906,0.335202,0.141517,-0.152150,-0.145800,-0.539433,-0.533050,-0.226652,0.179761,-0.113813,-0.407374,-0.300922,0.105541,0.212015,-0.281501,-0.775008,-0.668507,-0.261998,0.044519,0.151041,0.057568,0.164100,0.170636,-0.322826,-0.416285,-0.109743,-0.203201,0.003340,0.409881,0.816419,0.522954,0.729486,0.636013,0.642534,0.449049,-0.644444,-0.237945,-0.031455,-0.024975,-0.218506,-0.312048,0.194397,0.600828,0.607244,0.913645,0.220030,0.126397,0.132746,-0.060924,0.245385,0.551674,0.357940,0.464183,0.470403,0.676597,0.682765,0.588906,-0.004980,-0.198896,0.207158,0.713182,0.519173,0.425132,0.431056,0.536946,0.142799,0.048615,0.154394,0.260133,0.965832,0.771489,0.377104,0.082676,-0.011796,0.193686,0.299121,0.204509,0.109848,0.215138,0.020376,-0.374437,-0.369304,-0.764225,-0.759201,-0.754233,-0.749323,-0.944472,-0.639680,-0.634949,-0.630280,-0.725674,-0.521133,-0.616657,-0.412247,-0.607905,-0.603632,-0.699429,-0.895297,-0.791237,-0.687251,-0.883340,-0.779504,-0.175745,0.127935,-0.568463,-0.964943,-1.161504,-0.558148,-0.454876,-0.351690,-0.248590,-0.445578,0.157346,0.060179,-0.137080,-0.434431,-0.631876,-0.229415,0.672948,0.475215,0.177382,-0.220551,-0.418585,-0.516721,0.285039,-0.113306,-0.411758,-0.610317,-0.408985,-0.807763,-0.606653,-0.305655,0.295229,0.095998,-0.403350,-0.702815,-0.802400,-0.102105,-0.201932,-0.501881,-0.801955,-0.602155,-0.502482,-0.302936,-0.303521,-0.304236,-0.405083,-0.606064,-0.707179,-0.508431,-0.509821,-0.611349,-1.013017,-1.114827,-1.016780,-0.718878,-0.321120,0.376490,0.473952,-0.028736,-0.231575,0.265434,0.162289,0.158989,0.055532,-0.148083,0.048143,-0.155792,-0.259889,0.235850,0.631425,0.526833,0.222073,0.217144,0.112045,0.206774,0.401329,0.495710,0.289914,0.483940,0.777788,1.171455,1.164940,1.058241,0.951358,0.844288,0.637031,0.329584,0.721947,0.914118,0.906095,0.497877,0.289462,0.480849,0.372037,0.063024,0.253809,0.144389,0.434764,0.324933,0.614892,0.604642,0.894181,1.183506,0.972618,0.161513,0.450191,0.538650,0.626888,1.014904,0.802697,0.490265,0.377606,-0.135281,0.351602,0.438255,0.624674,0.010859,0.096808,0.182520,-0.032007,0.153225,0.038215,-0.677038,-0.592537,-0.808282,-0.524276,-0.740520,-0.957016,-0.973764,-1.090768,-1.008027,-1.125545,-1.143322,-1.061360,-0.779661,-0.898227,-1.217058,-0.536157,0.144475,0.524836,0.304925,-0.315260,0.164279,0.243540,0.322523,0.201225,-0.120355,0.157781,0.535632,0.313195,0.490469,-0.132547,-0.255855,0.020543,-0.303355,-0.227550,0.047956,-0.276838,-0.201934,-0.027334,0.446960,0.120947,-0.205376,-0.232008,0.041047,0.313787,0.486212,0.058320,0.030108,0.301576,0.572721,0.543541,0.614036,0.084202
1,3,0.018601,0.109420,0.300218,0.090994,0.081750,0.672486,0.863202,0.753900,0.744579,0.635240,0.525884,0.716511,0.807122,0.797717,0.888297,0.878863,1.269414,1.459953,0.950478,0.540991,0.331493,0.521983,1.112463,1.002932,0.793393,0.483844,0.574288,0.964723,0.955152,0.845575,0.835991,0.426402,0.216809,0.207211,0.297611,-0.211993,0.078401,-0.031207,0.259185,-0.050424,-0.460033,-0.269641,0.220753,0.211148,0.401546,-0.008052,-0.217647,-0.027237,-0.136822,-0.246402,0.044026,0.434460,0.224901,0.015351,-0.294190,-0.203722,0.186756,0.277245,0.167746,-0.041742,0.248783,0.539321,0.429873,0.120439,-0.188979,0.001618,0.592231,0.382862,0.073510,0.064176,0.054861,0.345566,0.536290,0.427035,0.117802,0.408590,0.399401,0.790235,0.781093,0.571976,0.662883,0.453816,0.444775,0.535761,0.526775,0.117816,0.308886,0.699986,0.891115,0.682275,0.473466,0.464689,0.555944,0.647232,1.138553,0.929908,0.821298,0.312724,0.304185,0.395683,0.587217,0.978790,1.270400,1.162050,0.753738,0.645467,0.637236,0.729046,0.220898,0.312792,0.304729,0.096709,0.188734,0.480802,0.272916,0.465075,0.257280,0.449532,0.941831,1.034178,0.526573,0.019018,-0.188489,-0.195946,-0.303352,-0.210707,-0.218011,-0.725263,-1.132463,-0.939609,-0.946702,-0.853741,-1.060725,-1.067655,-0.974529,-0.981347,-0.688108,-0.794812,-1.001459,-0.808048,-0.314579,-0.321051,-0.127463,-0.533816,-0.340108,-0.346340,-0.852511,-1.358620,-0.664666,-0.470651,-0.676572,-1.182431,-1.288225,-1.193955,-1.199621,-1.605221,-1.510757,-0.816226,-0.621629,-0.826966,-1.232235,-1.437437,-1.242572,-1.547638,-1.752636,-1.557565,-1.362425,-1.067215,-1.071935,-1.276585,-1.481164,-1.485673,-1.890110,-2.194475,-2.498769,-1.802990,-1.007139,-1.011215,-1.215218,-1.019148,-1.023004,-1.026786,-0.630494,-0.734127,-0.537686,-0.241169,-0.844578,-1.047910,-1.251168,-0.354349,-0.157454,-0.160483,-0.163435,-0.166310,0.030892,0.128170,0.425526,0.722960,0.720471,1.218060,0.915728,1.013473,1.011296,0.609198,0.407179,0.705238,1.103375,0.901592,0.599888,0.298262,0.296716,0.495249,0.793861,0.492553,0.591323,0.090174,0.389103,-0.011888,0.187201,-0.013631,0.085616,0.284943,0.284350,0.183836,0.283401,0.483046,0.182770,-0.117427,-0.517545,-0.317583,0.182457,0.182577,0.282776,0.083053,-0.016591,-0.316157,-0.215644,-0.315053,-0.314384,-0.613637,-0.312812,-0.311910,-0.410930,0.090127,-0.108738,0.092473,-0.006240,-0.004876,-0.503435,-0.401919,-0.000328,0.701340,0.603082,0.804899,0.706791,1.208757,1.310797,1.312910,0.615097,0.817357,1.219690,1.422095,1.124572,1.427120,1.429740,1.832431,1.935192,1.838023,1.640923,1.543893,1.146932,1.450039,1.353214,1.756457,1.759766,1.463142,1.366585,1.670092,1.473665,1.777303,1.881004,1.484769,1.488597,1.492488,1.096441,0.700455,0.604530,1.308665,1.912860,2.017114,2.121426,1.825797,1.530225,1.134710,1.139250,1.043847,1.948498,1.953203,1.757962,1.662774,1.567638,1.272554,1.477521,1.482538,1.287604,0.892720,0.897883,1.103094,1.508352,1.713656,0.719005,1.024398,0.829836,0.635316,0.040839,0.046403,0.052008,0.057653,0.363337,0.269060,0.274821,-0.319382,-0.013548,-0.307680,-0.201776,0.404161,0.210131,-0.083867,-0.377834,-0.271770,-0.665677,-1.159555,-1.053405,-0.547229,-0.441025,-0.634797,-0.428544,-0.422267,-0.215967,-0.209646,-0.003303,0.003059,-0.090559,0.115842,0.322260,0.628695,0.035146,-0.158389,-0.251909,-0.845416,-0.838911,-0.632395,-0.725868,-0.719332,-0.612786,-0.906233,-0.999674,-0.693108,-0.886537,-0.579962,-0.673383,-0.466802,-0.860220,-1.153637,-0.947055,-0.940474,-0.833895,-0.827319,-0.620747,-0.914180,-1.207618,-1.301064,-0.994516,-0.687978,-1.481449,-1.574930,-1.368422,-1.361926,-1.255444,-1.048975,-1.142521,-1.136083,-0.929662,-0.923257,-1.616872,-1.610505,-1.104159,-0.897834,-0.591530,-0.585250,-0.778993,-1.272760,-1.266554,-1.560373,-1.754219,-1.648094,-1.541997,-1.035931,-0.829894,-0.723890,-0.617917,-0.211978,-0.506073,-1.300202,-1.294368,-1.388569,-1.082808,-0.877086,-0.971402,-0.765758,-0.660155,-0.254593,-0.749073,-0.243596,0.261837,0.467225,-0.127432,0.077864,-0.316886,-0.711684,-0.406530,-0.601426,-0.496372,-0.691368,-0.886417,-0.481517,0.123330,-0.071877,-0.267139,-0.362456,-0.357828,-0.153258,-0.048744,0.055711,-0.239892,0.064445,0.168722,-0.127061,-0.022906,0.181186,0.785217,0.389183,0.093086,-0.203076,-0.399303,0.404403,0.608043,0.611616,0.415122,0.218558,0.621926,0.825224,0.728452,0.231610,0.334696,0.337710,0.340652,0.243520,-0.153684,0.449037,0.451684,0.354255,0.556751,0.759171,0.861515,0.763781,0.965970,0.768081,0.570113,0.572066,0.873940,0.975735,1.377448,1.779082,1.580634,1.382104,1.083493,1.284799,1.286023,0.987163,0.888220,1.289194,0.990083,0.790887,0.391607,0.892242,0.992791,0.893254,0.793631,0.993922,1.194126,1.194243,0.894273,0.894215,0.594070,0.493836,0.493515,0.593104,1.092606,0.792018,0.491342,-0.009424,0.089720,0.188775,0.087741,0.186616,0.685402,0.784097,0.882702,0.981216,1.079640,0.477974,0.676216,0.474368,0.372430,0.370400,0.268279,0.266068,-0.236235,0.061371,0.158887,0.556311,0.353645,0.150887,0.148039,0.245099,0.142069,-0.261052,0.235736,0.332434,0.629041,0.825558,1.121985,1.018321,0.614567,0.210724,0.006790,-0.097232,-0.501345,-0.405546,-0.309836,-0.814216,-0.918683,-0.823240,-0.627884,-0.832616,-0.737435,-0.642342,-0.647337,-0.652417,-0.357585,-0.962838,-1.168177,-1.173602,-0.979111,-1.084706,-0.990385,-1.196148,-1.001995,-1.107925,-1.313937,-1.120033,-1.826210,-1.432469,-1.138808,-1.045229,-0.951730,-1.158310,-0.964970,-0.771708,-0.978525,-0.985420,-1.592391,-1.399439,-1.006563,-0.113763,0.078962,-0.028387,-0.635810,-1.443306,-1.450874,-1.158515,-0.966227,-0.874009,-1.181862,-1.289784,-1.297775,-0.905833,-0.313959,-0.522152,-0.730411,-1.038735,-0.647123,-0.355575,-0.264090,-0.472668,-0.581307,-0.090006,-0.198766,-0.007585,0.083538,0.274603,0.065612,-0.343436,-0.452539,-0.361696,-0.070906,-0.280169,-0.289484,-0.398849,-0.408265,-0.617730,0.072757,-0.036803,0.153591,-0.156061,-0.565758,-0.375498,-0.285281,-0.495106,-0.404971,-0.114877,-0.124821,-0.234803,0.055178,-0.654877,-0.664967,-0.975091,-0.985248,-1.295437,-1.105657,-0.515907,-0.526186,-0.936493,-1.046826,-0.657186,-1.267570,-0.677978,-0.588408,-0.698861,-0.409333,-0.619826,-0.830336,-0.940864,-1.051409,-0.461968,-0.772542,-0.983128,-1.193727,-0.704336,-0.514955,-0.525583,-0.836218,-1.046860,-1.157507,-0.668158,-0.778812,-0.789468,-0.800125,-0.510782,-0.321438,-0.632091,-0.242740,-0.053384,-0.564023,-0.774654,-0.885278,-0.495892,-0.706495,0.082912,0.372333,0.361767,-0.048784,0.140682,0.230164,0.319665,-0.090815,-0.001274,0.288289,0.677874,1.067483,1.057118,0.446778,0.436466,0.626182,1.015928,1.305705,1.095513,0.985354,1.075229,2.065139,1.955086,1.545069,1.035091,1.425152,1.315254,1.105398,0.995584,0.985814,1.176089,0.866409,0.556777,0.447192,0.337657,0.228172,0.318738,0.409356,0.600027,0.490752,0.581533,0.172370,-0.236736,0.154217,0.045228,0.136300,0.427433,0.218629,0.209887,0.401210,0.392598,-0.015948,-0.224428,-0.432839,-0.341182,-0.249454,-0.557657,-0.565787,-0.473845,-0.581830,-0.289741,-0.097577,-0.005336,0.086981,-0.320625,-0.628151,-0.535599,-0.142967,-0.150253,-0.157458,-0.164581,-0.171620,-0.078575,-0.585446,-0.192231,0.001071,0.194459,-0.512065,-0.518501,0.075153,0.468896,0.062729,0.056654,0.050671,0.344779,0.438981,0.533277,0.427667,0.822151,0.716731,0.911407,-0.193820,-0.498950,-0.203983,-0.308917,-0.213753,0.181510,0.276873,-0.127664,0.467900,0.363565,-0.140669,-0.144800,-0.248830,-0.252756,-0.456580,-0.460300,-0.063916,0.032572,-0.270835,-0.574138,-0.377335,-0.080427,0.116587,0.113707,-0.089067,0.108266,0.205705,0.003252,0.200905,0.198666,0.596535,0.694511,0.892595,0.590787,0.489088,-0.012504,0.586013,0.584638,0.683371,0.382214,0.081164,-0.019777,0.279391,0.678667,0.278052,-0.422454,-0.422853,-0.023142,0.676676,0.776603,0.976638,1.076781,1.077032,1.577391,1.277857,1.578431,1.579112,1.679900,1.680795,1.481796,1.782904,2.084118,2.085437,2.086863,1.888393,2.390029,2.391769,2.093613,2.095561,1.997613,1.899768,1.602026,1.504386,1.206848,1.609412,1.212077,0.914842,0.617708,0.220673,0.723738,0.726901,0.530162,0.033521,0.036977,0.340530,0.544178,0.447922,0.351761,0.455693,0.459719,0.463839,0.868050,0.672353,0.376747,-0.318769,-0.514196,-0.609533,-0.204783,0.600055,0.504980,0.509990,0.515086,0.620266,0.525529,0.930875,1.036304,0.841813,0.747403,0.453072,0.558820,-0.135354,-0.029452,0.176527,-0.017419,-0.111291,-0.605089,-0.298815,0.307531,0.213947,0.320433,-0.073012,-0.166390,-0.059701,0.347055,0.653875,0.960758,0.767705,0.674714,0.281783,-0.011087,-0.403899,0.003347,0.510649,0.118008,-0.274579,-0.367113,-0.259593,-0.052023,-0.044402,0.063269,-0.429013,-0.421247,-0.113436,0.294421,0.302321,0.110264,-0.181752,-0.373727,0.034338,0.442440,0.050579,0.358755,0.466965,0.175208,0.483484,0.791792,0.900129,0.408496,-0.083110,0.025311,0.133758,-0.457772,-0.549278,-0.540762,-0.332226,-0.023669,-0.015095,-0.706503,-0.797895,-0.489272,-0.480636,-0.571987,-0.463327,-0.554657,-0.745977,-0.737290,-1.128597,-1.319898,-1.211194,-0.902488,-1.193780,-0.685071,-0.776363,-0.667656,-0.858953,-0.750253,-0.941558,-0.932870,-0.524190,-0.515518,-0.806856,-0.598206,-0.589567,-0.380942,-0.672331,-0.363736,-0.555158,-0.346598,-0.238057,-0.529536,-0.821036,-0.712559,-0.504106,-0.195677,-0.087274,-0.078898,-0.270550,-0.362231,-0.453943,-0.245686,-0.237461,0.070730,-0.221113,-0.512992,-1.004908,-0.496861,-0.088853,0.219115,0.227042,0.534928,0.242770,-0.049431,-0.441677,0.066030,-0.026309,0.081304,0.088869,0.196383,0.403847,0.611259,1.118618,0.425924,0.133175,0.240371,-0.252490,-0.045408,-0.338384,-0.031419,-0.624513,-0.617669,-0.310886,0.095834,0.202492,0.309085,0.215613,-0.277924,-0.071528,-0.465199,-0.058939,0.347253,0.553376,0.459428,-0.034591,-0.028681,0.277156,0.082919,-0.111391,-0.505775,-0.900235,-0.594770,-0.389382,-0.384071,-0.778838,-0.573683,-0.568607,-0.463610,-0.558693,-0.153857,-0.749102,-0.244429,-0.639838,-0.135330,-0.030905,-0.326563,-0.022306,0.381867,0.385954,0.189957,0.193873,0.397703,0.201446,-0.294898,-0.091329,-0.087848,0.215545,0.518849,0.322065,-0.274808,-0.371771,0.131176,0.134034,-0.263198,-0.560521,-0.557934,-0.655439,-0.553034,-0.350720,-0.248497,-0.546367,-0.244327,-0.042380,0.059476,0.361240,0.062912,-0.135508,0.065980,0.567375,0.668679,0.669890,0.171009,0.172036,0.072970,-0.126187,0.274564,-0.124778,-0.124211,-0.523736,-0.423353,-0.423061,-0.522860,-0.722751,-1.022733,-1.022805,-1.422968,-1.123222,-1.023566,-0.523999,-0.324523,-0.525136,-0.325838,-0.526629,-0.627508,-0.728475,-0.429531,-0.330674,-0.231904,-0.533220,-0.134624,0.263887,0.062313,0.060653,-0.041091,0.057081,-0.144832,0.153173,0.351095,-0.251065,-0.253307,-0.155630,0.141967,0.239483,0.136921,-0.165721,-0.568441,-0.471238,-0.474113,-0.677063,-0.280089,-0.383190,-0.686366,-0.889615,-1.192937,-0.796331,-0.799796,-0.903332,-1.206938,-1.010614,-1.014357,-1.118168,-1.422046,-1.225990,-0.829999,-0.834072,-0.438209,-0.042409,-0.546670,-0.550992,-0.455374,-0.559814,-0.364314,-0.268870,-0.373483,-1.078151,-1.182873,-0.887649,-0.292477,-0.397357,-1.002287,-0.707267,-0.512295,-0.317371,0.077507,-0.127661,-0.132873,0.361872,0.756574,0.151236,-0.054143,0.440439,0.534983,0.429490,0.423962,0.218399,0.312802,0.207173,0.101513,-0.104177,0.490104,0.384357,0.378583,0.472784,0.366960,0.861114,-0.044755,-0.250644,-0.356552,-0.362480,-0.168424,-0.474384,-0.480359,0.213653,0.607652,0.601640,0.795619,0.789589,0.483551,0.177507,0.571459,0.665407,0.259352,0.453297,0.347241,0.641187,0.835136,0.829088,0.723046,1.017010,0.510981,0.504962,0.698953,0.492955,0.286970,0.181000,0.275044,0.469105,0.163184,0.157282,0.251400,0.545540,0.239703,-0.066110,0.028103,0.422342,0.916609,0.710905,0.505232,-0.000409,-0.306018,-0.211592,0.182869,0.477367,0.071902,-0.433523,-0.338907,-0.344250,0.050449,-0.054807,-0.260018,-0.165182,-0.870299,-0.975367,-0.880385,-0.785351,-0.890266,-0.895126,-0.899932,-1.004682,-1.209375,-0.914009,-0.618584,-0.623099,-0.727552,-0.931943,-0.836269,-1.240531,-1.644726,-1.048854,-1.052915,-0.656906,-0.760826,-0.964676,-0.968452,-0.472156,-0.475785,-0.279339,-0.582816,-0.886216,-0.589537,-0.392779,-0.695941,-0.699022,-0.302020,-0.104936,0.192232,-0.210514,-0.613175,-0.215750,-0.118237,-0.720636,-1.122945,-1.025165,-0.427295,-0.129333,-0.231278,-0.433131,-0.234890,-0.036555,0.161875,-0.039599,-0.040977,-0.242257,0.156560,0.555475,0.454489,0.253603,0.152817,0.152131,0.151546,-0.048937,0.250682,0.250404,-0.149772,-0.649844,-0.649812,-0.149676,0.350565,0.150911,0.051362,-0.148082,-0.147419,-0.146650,-0.145775,-0.144794,-0.643705,-0.542509,-0.641207,-0.139797,0.261721,0.463346,0.665079,0.366919,0.168867,0.170923,0.573087,0.975358,1.477736,1.180222,0.582816,0.385516,0.188324,0.391238,0.594259,0.397386,1.000620,1.003959,0.707404,0.110953,0.114608,0.118367,0.122229,-0.173805,-0.369736,-0.365564,-0.061291,0.443084,0.347559,0.152135,0.356810,0.461583,0.466455,0.071424,0.476490,0.281651,0.386907,0.392257,0.197701,0.403237,0.608864,0.714581,0.920388,1.126283,1.032265,1.438333,1.144486,1.050724,0.457043,0.963444,0.669926,0.676486,0.683123,0.889837,0.796626,0.603488,1.210422,1.317426,1.324499,1.031640,0.638846,0.846117,1.053450,0.860844,1.168298,1.275808,1.283374,1.390994,1.498666,1.206388,1.214159,1.621975,1.629836,2.137738,1.645681,1.253662,1.261679,1.369730,1.177812,1.185924,0.794063,0.702226,0.710412,0.918618,0.826842,1.535081,1.443332,1.351594,1.459864,1.768139,1.776416,1.984693,1.892967,1.401236,1.309496,1.317745,1.525981,1.534199,1.242398,1.050574,1.158724,0.866846,0.674936,0.582991,0.491008,0.098984,0.006915,-0.485200,-0.277367,0.130412,0.138134,-0.054205,-0.146609,-0.539080,-0.831623,-1.324240,-1.116935,-0.509713,-0.402576,-0.795528,-1.088574,-1.381716,-1.274958,-0.868305,-0.361761,-0.555328,-0.649011,-0.442815,-0.536742,-0.930798,-0.824986,-0.819310,-0.813775,-0.308384,-0.503142,-1.198054,-1.493123,-0.988354,-0.483751,-0.079319,0.424938,-0.070984,-0.367091,-0.563387,-0.659876,-0.556563,-0.353453,-0.450550,-0.247859,-0.645386,-0.643134,-0.941109,-0.739316,-0.437759,-0.236444,-0.235375,-0.334559,-0.333999,-0.133700,-0.133669,-0.233911,-0.534430,-0.635231,-0.736321,-0.537705,-0.339387,-0.341374,-0.143671,-0.146283,-0.249216,-0.352476,-0.956067,-0.859997,-0.364270,-0.168892,-0.773870,-0.879208,-0.784913,-0.890991,-0.797447,-0.704288,-0.211519,-0.219147,-0.627178,-0.935617,-0.644471,-0.653747,-0.763449,-0.573586,-0.884162,-0.595184,-0.306660,-0.318594
1,3,0.157059,-0.441922,-0.240918,-0.039930,0.161042,0.261999,0.462940,0.163864,0.064773,0.065665,0.166540,0.267399,0.068240,-0.130935,0.169872,-0.029338,-0.328565,-0.627811,-0.027074,0.073645,0.074346,-0.224972,-0.224308,-0.523662,0.176964,0.277572,-0.121839,-0.421269,-0.420719,-0.620187,-0.219676,-0.219184,0.081289,-0.218259,-0.417826,-0.417414,-0.417022,-0.416650,-0.416299,-1.215968,-0.915657,-0.815368,-0.415099,-0.914851,-1.014625,-0.914419,-0.914234,-0.914071,-1.213930,-0.913809,-0.913710,-1.013633,-0.913578,-0.813544,-0.513532,-0.313542,-0.613574,-0.813628,-1.013704,-0.913802,-0.613923,-0.614066,-0.814230,-1.014418,-1.214627,-1.014859,-1.215114,-1.315391,-1.215690,-0.816013,-0.416357,-0.716725,-0.617114,-0.717527,-0.217962,0.281580,0.181099,0.580596,0.880070,0.479521,0.378950,0.578356,1.077739,0.577100,0.276437,-0.024247,0.775045,0.774315,0.473562,-0.127213,-0.128011,0.271168,0.570325,0.469460,-0.031428,-0.732338,-0.633271,-0.434226,-0.235203,-0.536203,-0.537225,-0.338268,-0.039334,0.059578,0.358468,-0.042664,-0.243817,-0.144993,-0.046190,-0.147408,-0.348649,-0.449910,-0.451193,-0.252498,-0.353823,-0.755170,-0.356537,-0.257926,-0.559336,-0.360766,-0.262217,-0.263688,-0.565180,-0.266693,0.031775,0.030222,-0.171351,-0.072944,0.325444,0.623812,0.822160,0.920489,0.718798,1.117088,1.115359,0.713611,0.211845,0.310059,0.808255,1.406433,1.704592,1.102733,1.300857,0.798962,0.897049,1.195119,1.593172,1.691207,1.289225,0.987227,0.685211,0.683179,0.981130,1.079064,1.376983,1.174886,1.072772,0.770643,0.568499,0.566339,0.464164,0.061974,-0.040231,0.057549,0.455315,0.153066,0.250804,0.448527,0.446236,-0.156068,0.041615,-0.260716,0.436940,0.234584,-0.267786,-0.170167,0.227439,0.225032,0.422614,0.120184,-0.182257,-0.084710,-0.187174,-0.189649,-0.292134,-0.494630,-0.797137,-0.899654,-0.502180,0.095284,-0.007262,-0.609817,-1.012382,-1.014955,-1.017537,-1.120127,-1.022726,-1.425333,-1.227947,-1.330569,-1.533199,-1.635836,-1.638480,-0.841131,-0.743788,-0.646452,-0.849122,-1.051798,-1.054480,-1.457167,-1.459859,-1.162557,-1.065259,-1.067966,-1.070678,-0.873393,-0.876113,-1.278837,-1.081564,-0.484294,-0.087028,-0.489764,-0.692503,-0.495245,0.102011,0.299266,0.096518,0.093769,-0.008982,-0.111734,0.085513,0.482760,0.180006,0.277252,-0.025503,0.171743,0.268989,0.266236,0.063483,0.260732,0.257981,0.155233,-0.047515,-0.550260,-0.653004,-0.355745,-0.458483,-0.461219,-0.463952,-0.366682,-0.169409,-0.372132,-0.574852,-0.477567,-0.580279,-0.782986,-0.785689,-0.488387,-0.291080,-0.493768,-0.596450,-0.899128,-0.701799,-0.004465,0.592876,0.290222,0.387575,0.184935,-0.117698,0.179675,0.377056,0.474444,0.771839,0.469242,-0.033347,-0.335928,0.261499,0.358935,0.156379,-0.146168,-0.048706,-0.051236,-0.053756,0.143734,0.241232,0.138741,0.336259,0.733787,1.031325,1.028874,1.126433,1.124002,1.021583,1.219174,0.816775,0.614388,0.512013,1.509648,1.807295,1.404954,1.302624,1.500307,1.798001,1.495707,1.093426,0.791157,0.788900,0.886656,0.884424,0.682205,0.879999,1.077806,1.075626,1.073460,0.971306,1.169166,1.167039,1.564926,1.962826,2.060740,1.658668,1.656610,1.554566,1.452535,1.550519,1.348517,0.646529,0.344555,0.642596,0.740651,0.538721,0.336805,0.934904,0.733017,0.031146,0.529288,0.527446,0.925619,1.223807,1.022009,1.120227,1.218459,1.316707,1.314970,1.213248,1.411542,0.809850,0.608174,0.406513,0.304868,0.303238,0.301623,0.100024,-0.001560,0.196872,0.195320,-0.406217,-0.107739,-0.209245,-0.210735,-0.112210,-0.113669,-0.715113,-0.816540,-0.917952,-0.319349,-0.120729,-0.122094,-0.323443,-0.224776,-0.426094,-0.427396,-0.428682,-0.229952,-0.331207,-0.932445,-1.033668,-1.034875,-1.436066,-1.637241,-1.938401,-1.839544,-1.240672,-1.041784,-1.542880,-1.843960,-1.345024,-1.246073,-1.347105,-1.648122,-1.249123,-1.350108,-1.351077,-1.152030,-0.852967,-1.053888,-1.354794,-1.555683,-1.556557,-1.157415,-1.058257,-0.959082,-0.759892,-0.660686,-0.761464,-0.262227,-0.262973,-0.463703,-0.364417,-0.765116,-0.565798,-0.366464,-0.167115,-0.067749,-0.268368,-0.368970,-0.069557,0.329873,-0.270681,-0.371220,0.128258,0.127752,0.027262,-0.273213,-0.173671,0.525888,0.325462,0.325052,0.124659,-0.175719,-0.276080,-0.376425,-0.276754,-0.477066,-1.077363,-1.277643,-0.677906,-0.278154,-0.278385,-0.278600,-0.478799,-0.978981,-1.179146,-1.179296,-0.779429,-0.579545,-0.179645,-0.379729,-0.279796,-0.079846,0.020120,0.520102,0.420102,0.220118,0.120150,0.520200,0.820266,0.720348,0.520448,0.620564,0.620697,0.620847,0.621014,0.121198,0.321399,0.621617,0.521851,0.722103,1.122372,1.322658,1.322961,1.023281,0.823618,0.423973,0.824345,0.524734,0.525140,0.325564,0.126005,0.026464,0.126940,-0.372567,-0.272056,-0.271528,-0.670982,-0.670418,0.030163,-0.369238,-0.068622,-0.467987,-0.667335,-0.766666,-0.365978,-0.665273,-0.864549,-0.663808,-0.463049,0.037728,-0.061477,0.239336,0.340167,-0.258984,-0.358117,-0.057231,-0.056328,0.044594,0.145534,0.046492,0.147469,-0.451537,-0.450524,-0.749492,-0.148443,-0.347375,-0.146288,-0.045183,0.055940,0.257082,0.158242,-0.240579,-0.339382,-0.238166,-0.136932,-0.235679,-0.034408,-0.233118,-0.131810,0.069518,0.070863,-0.327772,-0.526389,-0.224988,-0.023568,0.177871,0.379329,-0.019195,0.082299,0.083813,-0.214655,-0.613105,-0.311535,-0.109947,0.191659,-0.006716,0.194928,0.096590,-0.101729,-0.000030,-0.098312,-0.196576,-0.394821,-0.493048,-0.691256,-0.089446,-0.287618,-0.185771,0.316094,-0.182022,-0.380121,-0.578201,-0.676263,-0.674306,-0.572332,-0.270340,0.031671,0.333699,0.135745,0.037809,-0.160109,0.041990,0.544108,0.746243,0.048395,0.050565,0.052752,0.154957,0.657179,0.659418,0.861674,0.563947,0.866237,0.368544,0.470868,0.473209,1.075566,0.977939,0.880329,0.282736,0.285158,0.787597,0.890051,1.092522,0.695008,0.697510,0.400027,-0.097440,-0.394892,-1.092329,-0.889751,-0.287158,-0.384550,-0.181927,-0.779291,-1.176639,-1.273974,-0.971294,-0.768601,-0.365894,-0.163173,-0.460439,-0.657692,-0.754932,-0.452159,-0.349373,-0.346574,-0.543763,-0.540940,-0.638105,-0.235258,0.067600,-0.429530,-0.626649,-0.023757,-0.020854,0.082060,0.284984,0.687918,0.690862,0.193816,-0.003221,0.199752,0.602734,0.105725,-0.291276,-0.488268,-0.785253,-0.882229,-0.779197,-0.476159,-0.273113,-0.570060,-0.667001,-0.763935,-0.260863,-0.357785,-0.354702,-0.551613,-0.148520,0.254578,0.057681,-0.039212,-0.036101,-0.232987,-0.029869,-0.226749,-0.523625,-0.120500,0.082628,0.585758,0.688889,0.292021,0.495153,0.998287,1.201420,0.904554,1.107687,1.310819,1.313950,0.917079,0.620207,0.623332,0.826455,1.429575,1.232692,1.335805,1.238915,1.242020,1.445120,1.348216,0.851306,0.954390,0.957468,0.860540,1.163605,1.266663,1.169713,0.572755,0.575789,0.878814,0.781830,1.084836,1.187833,0.890819,0.793795,0.396760,0.199713,0.602654,0.805583,0.408499,0.111403,0.214293,0.417169,1.020031,1.122878,0.725710,0.428527,0.631328,0.334112,0.236880,0.139631,0.642364,0.645080,0.547777,0.450455,0.453115,0.455754,0.758374,0.160974,0.363552,0.566110,-0.031354,0.471160,0.873652,1.376120,0.378566,0.280988,0.083386,0.385760,0.188109,0.490432,0.792730,1.095002,0.697248,0.799466,0.701658,1.003822,0.705957,0.808065,0.810144,0.712193,0.314213,0.216203,0.118163,-0.079908,0.121990,-0.276143,-0.174309,-0.072506,0.029264,0.031001,-0.067295,-0.165625,-0.063989,0.037613,-0.160820,-0.159287,-0.257790,0.043671,0.245096,0.446485,0.347837,-0.550848,-0.249570,-0.048330,-0.047128,-0.245964,-0.244839,0.356248,0.557296,0.158304,-0.440728,-0.439800,-0.538912,-0.638064,-0.237257,0.063509,0.364233,-0.035084,-0.034442,-0.233843,-0.333286,-0.432772,-0.332300,-0.231871,-0.431485,-0.631142,-0.130843,-0.230587,-0.130375,-0.330208,-0.330084,-0.230005,-0.129970,0.070020,0.269965,0.069866,0.269721,0.369531,0.169296,-0.130984,-0.431310,0.068319,-0.232098,-0.332561,-0.133070,-0.333624,0.265776,0.365129,0.564437,0.463699,0.362915,0.662084,0.261208,0.160286,0.359317,0.558303,0.357242,0.056136,-0.145016,-0.446214,-0.647458,-0.648748,-0.350083,-0.551464,-0.552890,-0.654362,-0.855879,-0.657441,-0.259048,-0.460700,-0.862397,-0.564138,-0.465923,0.232247,0.130373,-0.171545,-0.573506,-0.775511,-0.877559,-1.379650,-1.181784,-1.183960,-1.186178,-0.588439,-0.690741,-0.893085,-1.195470,-1.397895,-1.300361,-1.302868,-1.605414,-1.908000,-1.510625,-1.413289,-1.715992,-2.018732,-1.921511,-2.124326,-1.427179,-1.130068,-1.032994,-1.235955,-1.338952,-0.841983,-0.645049,-0.348148,-0.351281,-0.154447,-0.257646,-0.760877,-1.164139,-1.167432,-1.370756,-0.874109,-1.077492,-0.780904,-1.084345,-0.687813,-0.791308,-0.794830,-0.798378,-1.101951,-1.105550,-0.809172,-0.912818,-0.716488,-0.820179,-0.623893,-0.227627,-0.031382,-0.535157,-0.538951,-0.542763,-0.346594,-0.550441,-0.654305,-0.558184,-0.362079,-0.065988,0.030090,-0.373845,-0.577793,-0.481752,-0.685721,-0.989701,-0.893690,-1.197687,-1.101692,-1.005703,-0.709721,-1.213744,-0.817772,-0.921804,-0.425838,-0.429875,-0.633913,-1.337952,-1.241990,-0.746028,-0.650063,-0.954096,-0.858126,-0.762151,-0.366171,0.129815,0.125808,-0.278192,-0.282183,0.113835,0.309863,0.405903,0.101954,-0.101982,0.094096,0.390188,0.286295,-0.017581,0.078559,-0.125282,0.070895,-0.132908,-0.136691,-0.040452,-0.044191,-0.247908,-0.251600,-0.755267,-0.858909,-0.462524,-0.566112,-0.869671,-0.873202,-0.576702,-0.880171,-0.583609,-0.187014,0.009614,0.006276,-0.397026,-0.100293,0.396478,0.193286,-0.109868,-0.412982,-0.216056,-0.419089,-0.422080,-0.225028,0.572067,0.269207,0.066392,0.163622,0.360900,0.358225,0.255598,0.153021,0.350493,0.648017,0.245591,0.443219,0.340899,0.338633,0.436422,0.334266,0.232166,0.930123,1.228138,1.126210,0.724342,0.222534,0.120786,0.519100,0.417475,0.515913,0.614414,0.412979,0.411609,0.810303,0.909064,1.107891,1.206786,1.205748,0.904778,0.703878,0.803047,0.902287,0.701597,1.000979,1.000433,1.099959,1.099558,0.499231,0.598978,0.698799,0.998696,0.898669,0.998717,0.698843,0.599045,0.999325,1.199683,1.400119,0.800634,0.201229,0.201903,0.602657,0.803492,0.704408,0.705405,0.806484,0.807644,0.408887,0.110213,0.311621,0.113112,0.414687,0.416346,0.018089,0.419916,0.821828,0.623824,0.125905,-0.071928,0.530324,0.832661,0.635084,0.437593,0.440189,0.642870,1.045637,1.248491,0.951432,0.854459,1.057572,0.660773,0.764060,0.667433,0.870894,1.274442,1.078076,1.081797,1.385605,1.189500,0.993481,0.897549,0.801704,0.605945,0.210272,0.314686,0.519186,1.123772,1.128443,0.733201,0.738044,0.742972,0.747985,0.553083,0.158266,-0.036466,-0.131115,-0.025679,-0.020160,0.485443,0.491128,0.396897,0.402748,-0.091319,0.414696,0.520792,0.526969,0.133227,0.139565,0.045984,0.752481,0.859058,0.465713,0.072447,-0.220742,0.086146,0.093111,0.300152,0.607269,0.614462,0.721728,1.029070,0.536484,0.443972,0.551532,0.759164,0.966867,0.974641,0.482485,0.490399,0.598381,0.506432,0.614550,0.622734,0.530985,0.739302,0.847683,1.056128,0.364637,0.273209,0.781842,1.190536,1.599291,1.308106,0.816979,0.725911,1.234900,1.343946,1.153047,1.062203,1.171414,0.880678,0.989994,1.099362,0.408780,-0.081751,-0.072234,-0.262668,-0.053055,-0.043395,-0.233690,0.076060,0.485853,0.695690,0.605568,0.415487,0.325446,0.435445,0.545481,0.155555,0.465665,0.675811,0.485990,0.096204,0.006449,-0.283274,-0.372966,-0.362629,-0.452264,-0.841871,-0.831451,-0.321007,-0.210537,-0.300044,-0.589529,-0.878993,-0.368435,-0.557859,-0.647264,-0.536652,-0.526024,-0.715380,-0.604722,-0.494052,-0.483369,-0.772674,-1.261970,-0.951257,-1.140536,-1.429808,-1.019075,-1.108336,-1.097594,-1.086849,-1.276103,-1.065356,-1.454610,-1.443865,-1.233123,-1.222385,-1.211652,-1.100924,-0.990203,-0.979491,-1.268787,-1.458093,-1.347411,-1.336741,-0.626084,-0.715441,-1.204814,-1.294203,-0.883610,-0.673036,-0.062480,0.248054,0.058567,-0.530943,-0.720477,-0.410036,-0.499620,-0.389231,-0.478870,-0.668539,-0.758237,-0.347966,-0.037727,0.272479,-0.117350,-0.107213,0.002888,-0.187049,-0.577023,-0.467037,-0.257091,0.152815,0.162678,0.172498,-0.017726,0.092006,-0.298309,0.111329,0.320920,0.130462,0.139954,0.249395,0.258785,0.268122,0.077406,-0.513365,-0.404191,-0.395074,-0.586013,-0.277011,-0.268067,-0.359183,-0.650360,-0.841599,-0.932900,-0.824265,-0.715693,-0.507187,-0.198747,0.209627,0.117933,0.226171,0.234339,0.042438,-0.049535,0.458421,0.266305,0.174115,-0.218148,-0.310487,-0.302901,-0.295391,-0.187958,-0.280603,-0.473327,-0.066130,0.040987,-0.351976,-0.145021,0.361852,0.168642,-0.024652,-0.118029,0.388509,-0.005039,-0.198673,0.007606,0.213798,0.519902,0.325917,-0.168157,0.037679,-0.056576,0.249079,0.254642,0.060112,-0.434510,-0.329226,0.075965,0.281061,0.086062,0.090968,-0.104223,0.000490,0.005106,-0.090375,-0.185954,0.018368,0.022591,-0.373285,-0.769261,-0.765337,-0.761514,-0.557792,-0.654171,-0.850653,-0.747237,-0.443923,-0.340713,-0.737606,-1.134602,-0.931703,-0.728909,-0.726219,-0.523635,-0.721156,-0.518783,-0.516516,-0.114355,-0.612301,-0.710354,-0.708514,-0.806782,-1.105157,-1.003641,-0.802232,-0.700932,-0.899741,-1.598658,-1.297685,-1.296821,-1.196066,-1.095421,-1.094886,-0.894460,-0.794145,-1.193940,-1.693845,-1.593861,-1.293987,-1.194224,-1.094572,-1.195031,-0.595601,-0.796282,-0.797073,-1.197977,-1.298991,-1.400117,-1.201354,-0.902702,-0.704162,-0.905733,-0.707415,-0.109209,-0.111115,-0.213131,-0.215259,0.082501,0.180151,0.177689,0.475116,0.372432,0.369637,0.266730,0.563713,1.160585,1.157347,1.053998,1.150538,0.946968,1.343287,1.339497,1.335596,1.031586,0.627466,0.723237,0.918898,1.114450,0.309893,0.305227,0.600452,0.895569,1.190578,1.385478,1.080271,0.374956,0.169534,1.064005,1.758368,1.452626,1.146776,0.940821,0.934759,1.128592,1.122320,1.115943,0.609461,0.402874,0.596183,0.889389,0.982490,0.875489,0.768384,0.961177,0.553868,0.146457,-0.061056,-0.068670,0.023615,0.215799,0.107884,-0.300132,-0.208247,-0.016461,0.375226,0.366816,0.258307,0.049700,0.340997,0.332197,0.323300,0.214308,0.205220,0.296038,0.686761,1.077389,1.067924,0.758366,0.748715,0.938972,0.629137,0.819210,0.809193,0.899085,1.188887,1.178599,0.968223,1.057758,1.347205,1.336565,1.025838,0.715024,0.804124,0.493139,0.982069,0.770914,0.959676,0.948354,0.336950,0.325463,0.613895,0.702246,0.890516,0.878706,0.966816,1.254848,1.442802,1.230678,0.518477,-0.193801,-0.406155,-0.018583,0.668913,0.656335,0.343684,-0.269040,-0.581836,-0.294704,-0.507642,-0.620651,-1.033730,-0.946878,-1.060094,-0.873378,-0.886730,-1.100147,-1.113630,-1.227179,-0.940792,-1.254469,-1.168208,-0.882010,-0.795874,-1.209799,-1.023784,-1.137829,-0.951933,-1.166095,-1.280314,-0.694590,-0.208922,-0.623309
1,3,0.710216,0.808880,1.207554,1.406239,1.204934,0.903640,1.402357,1.601085,1.799824,1.698574,1.697335,1.896108,1.694892,1.893688,1.892496,1.591315,1.390147,0.988990,0.787846,0.786714,0.985595,0.784488,0.683394,0.882312,0.681243,0.380188,0.679145,1.178115,0.977099,0.976096,0.875106,0.374130,0.473167,0.772218,1.571283,1.370362,1.569454,1.168561,0.967682,0.566817,0.765966,0.565129,0.464307,0.363500,0.062707,-0.038072,-0.238835,-0.539584,-0.740318,-1.041037,-1.641741,-1.442430,-1.243104,-1.043763,-0.944406,-1.145034,-1.045647,-0.746245,-0.746826,-0.947393,-1.547944,-1.348479,-0.948998,-0.149502,-0.249990,-0.350462,-0.350918,-0.551358,-0.551783,-0.352191,-0.552583,-0.652960,-0.553320,-0.353663,-0.253991,-0.454302,-0.454598,-0.754876,-0.555139,-0.355385,-0.655615,-0.655828,-0.756025,-0.356205,-0.256369,0.143483,0.643353,1.243238,0.843141,0.643060,0.442995,0.542948,0.642917,0.342902,0.142904,0.242923,0.642959,0.443011,0.143080,0.143166,-0.256731,-0.256612,-0.656476,-0.356323,-0.356154,0.244032,0.544235,0.444455,0.244691,-0.055056,-0.554786,-0.354499,-0.554196,-0.253876,-0.453539,-0.253186,-0.152816,-0.052429,-0.152026,-0.351606,-0.251170,-0.050716,-0.150247,-0.049761,-0.149258,0.251261,-0.148203,-0.347651,-0.747083,-1.346498,-0.645897,-0.345279,-0.244645,-0.543995,-0.643329,-0.942646,-0.641948,-0.741233,-1.440502,-1.439755,-1.338992,-1.038214,-1.137419,-1.336608,-1.435782,-1.534940,-1.434082,-0.733209,-0.632319,-0.731415,-0.630495,-0.729559,-1.028608,-0.627642,-0.626660,-0.525664,-0.224652,-0.123625,-0.322583,-0.621526,-0.820454,-1.019368,-0.918267,-0.217151,-0.016020,-0.114875,-0.413716,-0.512542,-0.311354,0.189848,0.191064,-0.107706,-0.206462,0.294796,0.596068,0.697353,0.698652,0.499965,0.801291,1.002629,0.803982,1.005347,1.206725,1.508116,1.309520,1.410936,1.312365,1.113806,1.415260,1.616726,1.818204,1.519694,1.021195,0.322709,0.224233,0.525770,0.927318,1.028877,1.130447,0.732027,0.733619,0.535222,0.736835,0.838458,0.240092,-0.158265,0.043389,0.545052,0.546726,0.748408,0.950100,0.651802,0.553512,0.355231,0.256959,0.458696,0.560441,0.562194,0.563956,0.265725,0.567502,0.169287,-0.428920,-0.427121,-0.225314,0.476499,0.578320,0.780146,0.581980,0.883819,0.785665,0.687516,0.289373,-0.108765,-0.006897,0.594976,0.796854,0.698736,0.400623,0.602515,0.604410,0.706310,0.608213,0.310120,0.312030,0.113943,0.115859,-0.082222,-0.080301,-0.078377,0.023549,0.125476,-0.172594,0.129337,0.231269,0.533202,0.435136,0.437071,0.339006,0.140941,0.142877,0.144812,0.946746,1.248680,0.850613,-0.147455,-0.345524,0.156405,0.558332,0.260257,0.262180,0.564100,0.466018,-0.032067,-0.230155,-0.328247,-0.226342,-0.124441,-0.622544,-0.620652,-0.618764,-0.316881,-0.415002,-0.313129,-0.511262,-0.609400,-0.507544,-0.105694,-0.203851,-0.402014,-0.400184,-0.698361,-0.996546,-1.094738,-1.292938,-0.991146,-1.389362,-1.187587,-0.985820,-0.884063,-1.082315,-1.380576,-1.778847,-1.677128,-1.875419,-1.773720,-1.772032,-2.070355,-1.968689,-1.567035,-0.965392,-1.263761,-1.162142,-1.360535,-1.158941,-1.057360,-1.355792,-1.754237,-1.552696,-0.851168,-0.849655,-1.148155,-1.446671,-1.345201,-1.343745,-0.542306,-0.840881,-0.939472,-0.838079,-0.736703,-1.335342,-1.333999,-0.832672,-0.631362,-0.130070,-0.128795,-0.727539,-0.426300,-0.625079,-0.523878,-0.122695,-0.721531,-0.620386,-0.419261,-0.418155,-0.617070,-0.716005,-0.714960,-0.613936,-0.612934,-0.511952,-0.010992,0.189947,-0.109137,-0.308242,-0.007371,0.493479,0.794305,0.595108,0.395888,0.396644,0.497376,0.798084,0.398768,0.199427,0.300061,0.600670,1.001254,1.201812,1.302344,1.202850,1.103330,1.503783,1.004209,1.004608,0.704980,0.605325,0.705641,0.805930,1.206190,1.106421,1.106624,1.106798,0.906942,0.907057,0.207142,0.107197,0.107222,0.407216,0.607180,1.007112,1.307013,1.106883,0.706721,0.406526,0.806300,0.806041,0.105749,-0.394576,-0.094934,0.504675,0.804250,0.403790,0.303297,0.402769,0.702207,0.801609,0.700976,0.300308,0.399604,0.798864,0.998088,1.197276,1.096427,0.995541,1.194618,1.593657,2.192659,2.091624,1.390550,1.389438,1.588287,1.987098,1.685869,1.484602,1.483295,1.481948,1.380561,1.479135,1.577668,1.276160,1.374612,1.173023,1.071392,0.769720,0.768007,1.366252,1.664455,1.562615,1.160733,1.058809,0.856842,0.954831,1.152778,1.450681,1.448541,1.246356,0.944128,0.341856,0.339540,0.537179,0.634773,0.632323,0.329827,0.227287,0.524701,0.622070,0.819393,0.516671,-0.086097,0.311089,0.408228,0.405322,0.602369,0.399369,0.596323,0.393231,0.390091,0.286904,0.083671,0.180390,0.477062,0.573687,0.470265,0.566795,0.263277,0.359712,0.456099,0.152439,-0.151269,-0.255025,-0.158829,0.137319,0.233420,0.129473,0.525477,0.721434,0.317343,0.213204,0.009017,0.104782,0.200499,0.196169,0.191790,-0.212636,-0.217109,0.078369,0.073800,0.269184,0.164520,0.459808,0.355050,-0.049756,-0.254609,-0.359509,-0.064455,0.130551,0.025511,-0.079575,-0.184708,-0.389886,0.304889,0.399619,-0.305697,-0.611059,-0.416466,-0.921917,-1.027414,-0.932955,-1.438540,-1.644170,-2.049843,-1.855560,-1.861320,-2.067124,-1.872970,-1.478859,-1.184790,-1.290763,-1.196777,-1.502833,-1.508930,-1.515068,-1.321245,-1.427463,-1.433720,-1.940017,-1.546352,-1.252726,-0.959138,-1.265587,-1.872074,-1.678598,-1.785158,-1.891753,-1.798385,-1.805051,-2.111752,-2.718488,-2.925256,-3.032058,-2.438893,-2.045760,-2.052658,-2.259588,-2.066548,-1.873538,-1.680558,-1.687607,-1.694684,-1.701789,-2.408921,-2.116080,-1.623265,-1.230475,-1.537711,-1.544971,-1.852254,-1.859560,-1.866889,-1.774240,-1.381611,-1.489003,-1.796415,-1.403846,-1.211295,-0.918763,-0.826247,-0.833747,-0.341264,-0.248795,-0.756340,-0.763899,-0.671471,-0.579054,-0.586650,-0.594255,-0.501870,-0.309495,-0.217128,-0.324768,-0.332415,-0.440068,-0.747726,-0.755389,-0.763055,-0.370724,-0.278395,-0.286067,-0.093739,0.098589,0.190918,-0.116751,-0.124417,-0.332079,-0.039737,-0.147389,0.144965,0.337326,0.329695,0.222072,-0.185540,0.106857,0.099266,-0.008312,-0.215878,-0.523430,-0.530967,-0.238489,-0.545994,-0.353482,-0.560951,-0.568402,-0.675832,-0.183242,-0.090630,-0.297996,-0.605338,-0.812656,-0.519949,-0.627216,-0.134455,-0.141668,-0.348851,-0.356005,0.236871,0.129778,0.222718,0.415690,0.608697,0.701737,0.294814,0.287926,0.581076,0.474264,0.667491,0.860757,1.054064,1.047412,0.340803,0.034237,0.127714,0.421236,0.914804,0.808417,0.902078,0.895787,1.089545,1.183352,0.877209,0.171118,0.365078,0.359091,0.653157,0.747277,0.541453,0.635683,0.529971,0.824315,1.118717,1.013178,0.807698,0.602278,0.496919,0.491621,0.286385,0.581212,0.976103,1.171057,0.666076,0.161161,0.256312,0.851529,1.046814,0.842166,0.737587,0.833078,0.528637,0.224268,0.419969,0.915741,0.611586,0.607503,0.603493,0.599556,0.495694,0.591907,0.388194,0.684557,0.480996,0.577512,-0.025895,-0.029225,0.367523,0.664349,0.361254,0.058238,0.455302,0.352445,0.149669,0.146973,0.144359,0.641825,1.039373,0.637003,0.234716,0.132511,0.330389,0.928349,1.026393,0.624521,0.122733,0.221028,0.619408,0.817872,0.716421,0.415055,0.613773,1.112577,0.711466,0.510440,0.909500,1.008645,0.907876,0.807192,0.906595,0.706083,1.005657,1.205317,0.705063,0.404895,0.604813,0.904816,0.604906,0.405081,0.505342,0.505688,0.206120,0.506637,0.807240,0.907928,1.108701,1.009559,0.810502,1.211529,1.112640,0.813836,1.015116,0.816479,0.817926,0.819456,0.621069,0.322765,0.624543,0.826403,0.728344,0.630368,0.532472,0.234657,0.136923,0.739268,0.741693,0.644197,0.646780,1.249441,0.652181,0.154997,0.157891,0.360861,0.163908,0.267030,-0.129774,-0.226502,-0.323157,-0.319738,-0.016246,0.487318,0.590953,0.294660,-0.001562,-0.097715,0.006202,0.310187,0.314241,0.118361,-0.177451,0.126803,0.231122,0.135505,0.039953,-0.155536,0.049037,0.053672,0.158368,0.163125,0.267941,0.172816,0.277748,0.182738,0.087785,-0.007113,-0.101957,-0.096746,-0.091483,-0.086167,0.019200,-0.275382,-0.769915,-0.364399,0.041165,-0.153224,-0.147567,-0.541864,-0.236118,-0.030328,0.075504,0.281378,0.587292,-0.006754,-0.100762,-0.494732,-0.188666,-0.282563,-0.876427,-1.370256,-0.564053,-0.557818,-0.751552,-1.145257,-1.138933,-0.932581,-0.326203,-0.019799,-0.413371,-0.306919,0.499555,0.606050,0.412566,-0.080899,0.025655,0.532225,0.738811,0.845413,1.152028,1.358656,1.265296,1.271946,1.278606,1.485274,1.391950,1.098632,0.605319,0.712010,1.018704,1.425400,1.432096,0.938792,1.145487,1.252179,0.958868,1.265551,1.172229,1.078899,0.585562,0.692215,0.498857,1.005489,1.012107,1.018712,0.725302,0.531876,0.538433,0.844972,0.651492,0.657991,0.464469,0.370924,-0.022644,0.383763,0.390144,0.596498,0.202824,0.209121,-0.084612,-0.278377,-0.272173,-0.066003,0.140132,-0.053768,0.252295,0.458321,0.164308,0.170256,0.076162,-0.217973,-0.012151,-0.006373,-0.100639,0.005048,-0.289311,-0.383718,-1.078174,-0.872680,-0.867237,-1.061845,-1.056507,-1.151222,-0.845991,-0.740816,-0.735698,-0.730637,-0.825635,-0.520692,-0.615809,-0.410987,-0.506228,-0.801531,-0.796898,-0.492329,-0.687826,-0.783389,-0.779020,-0.574718,-0.170486,-0.666322,-0.962230,-0.958208,-0.354259,-0.250382,-0.146579,-0.542850,-0.039196,-0.335618,-0.632116,-0.928691,-0.725344,-0.322076,-0.118887,-0.715778,-0.812749,-0.909802,-0.706936,-0.904153,-0.501453,0.001164,0.203696,0.006143,0.008506,-0.089218,0.012972,-0.284925,-0.482909,-0.580982,-0.179143,0.122608,-0.075731,-0.274160,-0.572679,-0.771289,-0.969990,-0.668782,-0.267667,-0.366643,-0.665712,-1.164874,-0.864129,-0.763478,-1.262921,-1.162458,-1.162089,-0.861815,-0.761636,-1.261552,-1.661563,-1.861670,-1.661873,-1.362172,-1.662568,-1.863059,-1.863647,-1.364331,-1.065113,-1.065991,-0.866965,-1.068037,-1.169206,-1.270472,-1.571835,-2.073295,-2.174852,-2.176507,-1.678258,-1.480106,-1.682052,-1.584094,-1.486233,-1.788469,-1.690802,-1.493231,-1.095756,-1.098378,-1.301095,-1.203909,-1.206818,-1.109823,-0.912923,-1.216118,-1.019408,-1.022793,-0.826271,-0.629844,-0.733511,-0.437270,-0.241123,-0.445069,-0.349107,-0.253237,-0.257459,0.038228,-0.366176,-0.570671,-0.275255,-0.079929,-0.184693,-0.389545,-0.094485,-0.099513,0.295372,-0.009830,-0.215118,0.179508,0.674049,0.768506,0.662878,0.457167,0.051373,0.245497,0.339540,0.433501,0.327382,0.121183,-0.385095,-0.491451,-0.397885,-0.204396,-0.010984,0.182353,-0.024384,-0.131197,0.161918,0.354960,0.247930,0.440828,0.433657,0.626415,0.519105,0.811727,1.204282,1.396771,1.589194,1.681552,1.773846,2.266078,2.158247,2.050356,1.842403,1.634392,1.326322,1.318194,1.910010,1.401769,1.193474,1.085125,1.276724,1.668270,1.459765,1.351210,1.442605,1.233953,1.425254,1.216508,1.707717,0.898882,1.090004,0.981084,0.972123,0.763122,0.754081,0.945003,0.435888,0.326737,0.317551,0.408331,0.399079,0.589795,0.380480,0.071136,0.061764,0.252364,0.042938,-0.466513,-0.475988,-0.485486,-0.095006,-0.104546,-0.014106,0.176315,-0.133281,-0.442893,-0.452520,-0.262161,-0.371815,-0.481480,-0.291156,-0.200842,0.089464,0.079763,-0.029943,-0.339655,-0.949371,-0.659089,-0.068808,-0.078528,-0.588246,-0.697963,-0.807676,-1.017385,-0.827089,-0.936786,-0.946475,-0.456155,-0.665825,-0.875484,-1.385130,-1.094762,-0.704380,-0.513982,-0.523567,-0.433133,-0.442681,0.147793,-0.261713,-0.371195,-0.380653,-0.390087,-0.399494,-0.108874,-0.218225,-0.427547,-0.736838,-0.446097,0.044677,-0.064515,-0.673672,-0.382792,0.008125,-0.100920,-0.109925,-0.518889,-0.627811,-0.236690,0.454474,0.445684,0.136940,0.228243,0.519595,0.810996,0.602447,0.093950,-0.414495,-0.422886,-0.131223,-0.239504,0.052271,-0.055895,-0.864004,-0.972052,-1.080040,-0.887966,-0.895830,-1.203630,-1.111365,-1.119035,-0.926639,-0.934175,-0.841643,-0.349041,-0.256370,-0.563627,-0.370812,-0.377925,-0.084963,-0.191927,-0.198816,-0.205628,0.387637,0.880980,0.774402,0.467904,0.761486,0.955149,1.048895,0.842723,0.536635,0.730632,0.924713,0.418880,0.313134,0.707476,0.601905,0.596423,0.891030,0.985728,0.980516,0.475395,0.670367,1.165431,1.460588,0.855839,0.451184,0.946624,0.842160,0.437792,0.533520,0.529346,0.625268,0.721289,0.417409,0.513627,0.209945,0.706363,0.602881,0.299500,0.196220,0.393041,-0.010036,0.086989,-0.015883,-0.318653,-0.021319,-0.423882,-0.426341,-0.428697,-0.530948,-0.633095,-0.635138,-0.737075,-0.338908,-0.240636,-0.242258,-0.443775,-0.545187,-0.646493,-0.447694,-0.348788,-0.349778,-0.350661,0.148562,-0.252110,0.347323,0.646863,0.546508,0.346259,0.346115,0.446076,0.546143,0.446314,0.446590,0.546971,0.247457,0.448046,0.748740,0.149537,-0.049562,0.051442,0.152549,0.153758,-0.044931,0.156482,0.357996,0.559611,0.461327,0.263142,-0.034942,-0.232928,-0.430816,-0.028605,-0.126297,-0.023892,-0.221391,0.181206,0.483898,0.786685,0.789564,0.892537,0.795603,0.698759,0.702007,0.705344,0.608771,0.512286,0.315888,0.019577,0.023352,0.227212,0.631156,-0.064818,-0.160709,0.143481,0.647750,0.252099,0.056526,-0.238971,-0.134392,-0.129738,0.074989,-0.520211,-0.615340,-0.410400,0.194609,0.399686,-0.095171,-0.289963,-0.184692,-0.079359,-0.073965,-0.468511,-0.162999,0.342569,0.548192,0.353869,0.159599,0.565379,1.171207,1.177084,0.583006,0.388973,0.394982,0.401033,0.707123,0.313250,0.619413,0.625611,0.831841,0.638101,0.744390,0.850706,0.757047,1.163412,1.469797,0.976202,0.382625,0.089062,-0.304487,-0.398025,0.408447,0.314926,0.421410,0.127897,-0.465615,-0.859129,-0.452646,-0.546169,0.060300,-0.333241,-0.226794,-0.020363,0.086052,0.292447,0.098820,0.005168,-0.388510,-0.382217,0.124044,0.230271,-0.263539,-0.157388,-0.451279,-0.145214,-0.339196,-0.233228,-0.127312,-0.921452,-1.015649,-0.709906,-0.504227,-0.198613,-0.493069,0.012404,0.117802,0.423123,-0.171636,-0.166479,-0.761407,-0.756425,-0.851535,-1.046740,-0.442044,-0.637448,-1.032957,-0.728574,-0.224301,-0.120142,-0.516099,-0.112177,0.091621,0.595293,0.798835,1.002244,1.505516,1.508648,1.211637,0.814479,0.917171,1.119709,0.722090,0.524311,0.226367,0.128256,0.229974,0.131517,-0.067119,0.134064,0.335060,0.535868,0.236482,-0.363101,-0.762885,-0.662872,-0.463068,-0.363476,0.135900,-0.364944,-0.866012,-0.967307,-0.768833,-0.370595,-0.572597,-0.674842,-0.977335,-0.780079,-1.083080,-0.986340,-0.889864,-0.593656,-0.497721,-0.602062,-1.006684,-0.711591,-0.916787,-0.722277,-0.428065,-0.634155,-0.440552,-0.247260,-0.354284,-0.261628,-0.369296,-0.277293,-0.285623,0.005708,0.096697,-0.212661,-0.322371,-0.432437,-0.342865,-0.153658,-0.264822,-0.176361,0.111720,-0.200583,0.086724,0.273636,-0.139851,-0.253741,0.031959,0.617245,0.302113,0.086556,-0.029429,0.354152,0.237294,0.319992,0.302241,0.184036,0.165372,0.146243,0.026645,0.306572,0.186018
1,3,0.019846,0.223616,0.327400,0.231199,0.135013,-0.261159,-0.257316,0.346541,0.350412,0.554297,0.258196,-0.237892,-0.233966,-0.130026,0.073926,0.177892,0.281871,0.285863,0.189867,0.493883,0.597912,0.301954,0.006007,0.010072,0.414149,0.418238,0.322338,0.626450,0.630572,0.434706,0.438851,0.443006,0.547172,0.551348,0.455534,0.359731,0.363937,0.268154,0.272380,0.376615,0.180860,0.485114,0.489377,0.293649,-0.102070,0.102219,0.206517,0.310823,-0.084863,-0.380541,-0.176211,0.428127,0.432472,0.336825,0.541185,0.545552,0.049926,0.254306,0.158694,0.063087,0.167488,0.171894,0.476307,0.680725,0.785150,0.489580,0.094015,0.198456,0.402902,0.407353,-0.088190,-0.783729,-1.179264,-0.674793,-0.770319,-0.265839,-0.161356,-0.156869,-0.452378,-0.947882,-0.643384,-0.138881,-0.234376,-0.229867,-0.125354,0.079161,0.183679,-0.111799,-0.507276,-1.202749,-1.498220,-1.093689,-0.489155,-0.084619,-0.080081,-0.675541,-0.970999,-0.766456,-0.661910,-0.857363,-0.952815,-0.648265,-0.343714,-0.439162,-0.334609,-0.230054,0.174501,-0.020943,-0.216386,-0.611828,-0.607269,-0.402711,-0.498151,-0.693592,-0.389032,0.115529,-0.079911,-0.075350,0.229210,-0.266229,0.138332,0.242892,0.247452,-0.047988,-0.043428,-0.138869,-0.634310,-0.829752,-0.325194,-0.320636,-0.316080,-0.611524,-0.706968,-0.002414,0.002140,-0.193307,-0.388755,-0.184203,0.020347,-0.175103,-0.470555,-0.566008,-0.561461,-0.656916,-0.852371,-0.647828,-0.543286,-1.038745,-1.134206,-1.329667,-0.825130,-1.120593,-1.416058,-1.411525,-0.806992,-1.202461,-0.897931,-0.593403,-0.688875,-1.184349,-1.279824,-1.175301,-0.970778,-0.766258,-0.761738,-1.057220,-1.052702,-1.248187,-1.243672,-0.939159,-1.134647,-0.730136,-0.325627,0.078881,-0.116612,-0.012107,-0.507602,-0.603099,-0.698597,-0.794096,-0.789597,-0.685099,-1.180601,-0.976106,-0.671611,-0.267117,-0.362625,-0.558133,-0.653643,-0.749154,-0.744666,-0.340179,-0.535693,-0.031208,-0.226725,-0.222242,-0.217760,-0.313280,-0.508800,-0.304322,0.700156,0.304632,0.209108,0.013582,0.018056,0.422529,0.627000,0.931471,0.535940,0.240409,0.444877,0.649343,0.553809,0.758274,0.862738,1.567201,1.571662,0.876123,0.480583,0.585042,0.789499,0.793956,1.098412,0.702866,0.907320,1.311772,1.016224,1.320674,1.125123,0.929571,0.634017,0.638463,0.942907,1.147350,0.951791,1.156231,1.160670,1.565107,1.169543,1.373978,1.078411,1.382842,1.187272,1.191700,1.096126,1.000550,1.004973,1.209394,1.113813,1.618230,1.822645,1.927057,1.631468,1.435877,1.140283,1.644686,1.049088,0.653487,1.057883,1.362277,1.666668,1.271056,1.275442,1.379824,1.684203,1.688580,1.392953,0.497323,0.301689,0.606052,1.210412,1.114768,1.019120,0.623468,0.627813,0.432153,0.336489,0.540821,0.545149,0.949472,0.753791,0.358105,0.562414,1.066719,0.771018,0.475313,0.179602,0.383886,0.788165,0.492438,0.096705,0.000967,0.305222,0.009472,-0.286285,-0.082047,0.522184,0.326408,0.630626,0.634837,0.439041,0.243238,-0.252572,-0.548389,-0.344213,-0.540046,-0.535885,-0.331733,-0.327588,-0.023451,-0.119323,-0.515203,-0.111091,-0.306988,-0.002893,-0.098807,-0.594730,-0.990662,-0.686604,-0.382554,-0.478515,0.025516,0.229536,-0.066453,-0.662452,-0.858461,-1.054481,-0.950510,-1.046551,-1.042601,-0.738663,-1.034735,-0.730819,-0.826913,-0.423019,-0.819136,-0.815264,-0.911404,-0.907556,-1.103719,-0.599895,-0.496082,-0.992282,-1.188493,-1.184718,-0.980954,-0.977204,-0.673466,-1.069741,-0.966029,-1.062330,-1.858644,-1.654971,-1.151311,-0.947666,-0.944033,-1.040414,-1.236809,-1.133218,-1.029641,-0.926078,-0.922529,-0.718994,-1.015474,-0.711967,-0.708476,-0.404999,-0.501536,-0.398088,-0.794655,-0.491237,-0.287834,0.215554,-0.481073,-0.877715,-1.074372,-0.671045,-0.067733,0.135564,-0.161155,-0.657890,-0.454640,-0.451405,-0.348187,-0.344984,0.358203,0.261374,-0.035470,-0.432331,0.270792,0.673900,0.576991,0.480066,0.183125,0.186168,0.589194,0.892204,0.895198,0.798176,0.501137,1.204082,1.207011,0.609923,0.512819,0.415699,0.318562,0.021408,-0.075762,0.227052,0.529849,0.432629,0.435394,0.238141,-0.059128,-0.356413,-0.253715,-0.451033,-0.748368,-0.745719,-0.943087,-0.840471,-0.937871,-0.735288,-0.732722,-0.730171,-0.227638,-0.425120,-0.522619,-0.620134,-0.317665,-0.315213,-0.512776,-0.310356,-0.207952,-0.305564,0.096808,-0.100837,-0.098497,-0.196173,-0.093865,0.208427,-0.089296,0.112964,0.415209,0.717438,0.519652,0.421850,0.224032,0.326199,0.828350,1.030487,1.332607,0.534713,-0.063196,0.138879,0.340939,0.342985,0.545015,0.347030,-0.050969,0.051017,-0.047012,-0.145055,-0.243113,-0.541185,-0.539271,-0.037372,-0.235487,-1.033617,-0.631760,-0.229917,-0.128089,-0.226274,-0.324473,-0.022685,0.379089,0.180849,-0.117404,0.084329,-0.013951,-0.012244,-0.210550,-0.208869,-0.207201,0.094454,0.096097,-0.302274,-0.600657,-0.399052,-0.097460,-0.295880,-0.094313,0.007243,0.008786,0.110317,0.411837,0.313344,0.114840,0.416325,0.417797,0.619259,-0.379291,-0.777852,-0.276425,0.224992,0.326397,0.127792,-0.170824,-0.469451,-0.268089,-0.466737,-0.665395,-0.864064,-0.462743,-0.061432,-0.360132,-0.358841,-0.057560,-0.156289,-0.555028,-0.453776,0.247466,0.248698,-0.250079,-0.348865,-0.447660,-0.046465,0.654722,0.855900,1.257068,0.958228,0.859379,1.060522,1.461656,1.662782,1.263899,0.865008,1.066109,1.267202,1.668286,1.369363,1.370432,1.071493,0.672546,0.873592,0.874629,0.475660,0.376683,0.477699,0.078707,0.379708,0.280702,0.381689,0.082669,-0.416358,-0.515392,-0.414433,0.086520,0.087465,-0.011595,-0.310663,-0.609737,-0.408817,0.192097,0.393004,0.193904,0.094799,-0.104313,0.196570,0.497446,0.898316,1.099181,0.900040,0.800892,0.601739,0.302581,0.103416,0.104246,0.405071,0.305890,0.506703,-0.092489,-0.191686,-0.390889,-0.290097,-0.389310,-0.288529,-0.687753,-0.186981,-0.086215,0.014546,-0.284699,-0.583948,-0.283202,-0.482461,-0.581725,-0.580993,-0.580267,-0.479546,-0.678829,-0.678117,-0.577410,-0.376707,-0.376009,-0.475316,-0.474628,-0.473944,-0.173264,-0.072590,-0.571920,-0.371254,-0.470593,-0.969936,-0.969284,-0.468637,-0.067994,-0.067355,-0.366721,-0.066091,0.134534,0.035155,0.135771,0.236384,0.336991,-0.162405,-0.361807,0.238788,0.239378,0.239964,-0.359455,-0.358878,0.041695,0.042263,0.042827,0.343386,0.343942,0.544492,0.645039,0.345580,0.046118,0.346651,-0.052820,-0.052296,-0.051776,0.148739,0.349250,0.349756,-0.049742,-0.749245,-0.348752,-0.048264,0.352220,-0.147301,-0.046826,-0.446356,0.054109,0.454570,0.155026,0.055477,0.055923,0.156365,-0.143198,0.057234,0.057662,0.358084,0.458502,-0.241085,-0.340677,-0.140274,0.060124,-0.039483,-0.339096,-0.438713,-0.438335,-0.537963,-0.237595,0.062767,-0.236876,-0.536524,-0.536178,-0.835837,-0.535502,-0.535172,-0.234847,-0.234528,-0.234214,-0.633906,-0.433604,-0.133307,0.266984,0.167269,-0.432451,-0.532178,-0.231910,-0.031648,0.168608,0.268858,0.369101,0.669339,0.669570,0.369796,0.170015,0.370227,0.370434,0.170634,-0.029173,0.071014,0.471195,0.471368,0.371535,0.471696,0.171850,-0.028003,0.072137,0.472270,0.372396,0.572515,0.472627,0.372732,0.572829,0.572920,0.573003,0.273079,0.573147,0.673208,0.373261,-0.226693,0.273345,-0.026624,-0.026602,0.373413,-0.026580,0.073419,0.073410,0.173393,0.173368,0.573335,0.373294,0.073244,-0.026814,-0.226881,0.373044,0.272961,0.472869,0.172768,0.272659,-0.127459,-0.127586,0.272278,-0.227867,-0.428020,-0.628183,-0.528355,-0.228536,-0.328726,-0.628926,-0.529134,-0.329353,-0.229580,-0.029818,-0.330064,-0.330321,-0.430587,-0.430863,-0.131148,-0.131444,-0.331749,0.067936,0.167611,0.067275,0.066930,0.266574,0.766208,0.365832,-0.134555,0.065049,-0.635359,-0.435777,0.063795,0.163356,-0.037094,-0.337554,0.061975,0.261493,0.461001,0.360497,0.159983,0.359457,0.258921,-0.141627,-0.542185,-0.642755,0.056664,-0.143928,-0.244532,-0.745147,-0.945773,-0.746411,-0.047060,-0.347720,-0.448392,-0.749076,-0.849771,-0.350478,-0.751196,-0.451926,-0.252668,-0.253422,0.045813,0.145036,1.044247,1.143446,0.742633,0.541808,0.540972,1.140123,0.939262,0.738390,0.837505,0.936608,0.935699,1.134778,0.933845,0.832900,0.631943,0.630973,0.529992,0.628998,0.627992,0.626973,0.325943,0.824900,0.623845,0.522778,0.421699,0.120607,0.119503,0.418387,0.917259,0.916118,0.714965,0.913800,0.912623,0.711433,0.210232,0.009018,0.407792,0.406553,-0.194697,-0.395960,-0.097235,0.001479,-0.299820,-0.901132,-1.302455,-1.003790,-1.305137,-1.406496,-1.107867,-0.909250,-1.110645,-1.612052,-1.613471,-1.514901,-1.116343,-0.617797,-0.119263,-0.420740,-0.022229,-0.323730,-0.425241,-0.326765,-0.428300,-0.829846,-0.531404,-0.632973,-0.734553,-0.636144,-0.737747,-1.039360,-0.840985,-0.742620,-0.744266,-1.045924,-0.847592,-0.549270,-0.550960,-1.052659,-1.554370,-1.056091,-0.557822,-0.159563,-0.461315,-0.563076,-0.264848,-0.266630,-0.268422,-0.170223,-0.372035,-0.273855,-0.675686,-0.877526,-1.079375,-0.681234,-0.383102,-0.384979,-0.686865,-1.088760,-0.790664,-0.192576,-0.194498,-0.196428,0.101634,0.499687,0.197732,0.095769,0.393798,0.591819,0.589832,0.687837,0.785835,1.483825,1.781807,1.379782,0.977750,0.975711,0.973665,1.271612,0.769552,0.167486,-0.234587,0.063333,0.561247,0.659155,0.657057,0.354953,0.052843,0.350727,0.748606,0.746479,0.044347,-0.357791,-0.059933,0.937919,0.835766,0.333609,0.231447,0.529280,0.527109,0.124934,0.022754,0.220571,0.618384,0.316192,0.113997,0.011799,0.409597,0.407392,0.305184,0.202972,0.200758,0.498541,0.196321,0.194099,0.091874,-0.110353,0.087418,0.085187,0.182954,0.280719,0.678482,1.176244,0.874005,0.371764,0.169522,-0.132721,0.265035,0.062791,0.260546,0.658300,0.356054,0.053808,-0.148439,0.049315,-0.052932,0.144822,0.142576,-0.159669,-0.361913,-0.364157,-0.366400,-0.268643,-0.470884,-0.273123,-0.575362,-0.877599,-0.879834,-0.482068,-0.784299,-0.886529,-0.888757,-1.090983,-0.993206,-0.395427,-0.297645,-0.799861,-1.302074,-1.304284,-0.606491,-0.208695,-0.410896,-0.313093,-0.215287,-0.417478,-0.519664,-0.221847,0.275974,0.473798,0.071627,0.269461,0.367298,0.465140,0.662986,0.560837,0.458693,0.156553,0.254419,-0.047711,0.150164,0.248045,0.145931,-0.356178,-0.458281,-0.260378,0.237529,0.435443,0.333363,-0.068712,-0.270780,-0.372843,-0.274899,0.223051,-0.378993,-0.481030,-0.483061,-0.485086,-0.887103,-1.089115,-0.891119,-0.493116,-0.095107,-0.197090,-0.299067,-0.601037,-0.402999,-0.404954,-0.306902,-0.108842,-0.310776,-0.312701,-0.314620,-0.116530,0.281567,0.179671,-0.122217,-0.024097,-0.325969,0.072166,0.470310,0.468461,-0.133380,-0.135213,0.062962,0.061145,0.259336,0.057535,0.355742,0.753957,0.852180,0.850412,0.148651,-0.253101,-0.354845,-0.056581,0.341691,0.639971,0.238260,0.536557,0.634862,0.633175,0.231496,0.029825,0.128163,-0.173492,0.024862,0.023224,0.021594,0.119972,0.118358,0.216752,0.415154,0.013564,0.111982,0.010408,0.008842,-0.492717,-0.894268,-0.595811,-0.197346,0.101126,-0.000394,-0.001907,-0.303412,-0.104910,-0.506400,-0.207883,0.190641,-0.010828,-0.412290,-0.413744,-0.015192,0.183367,0.081933,-0.019494,0.079085,0.077671,0.276263,0.174862,0.373467,-0.027922,-0.229305,-0.330681,-0.132052,0.566583,0.365223,0.563869,0.562521,0.961178,0.659840,0.858508,0.557180,0.455858,0.154540,0.353227,0.151918,0.250614,0.349314,0.348018,0.346726,0.445438,0.644154,0.542873,0.241596,0.240322,0.339051,0.237784,0.036519,0.535257,0.433997,0.032740,-0.068515,-0.069767,0.128982,0.327733,0.426485,0.025240,-0.176005,0.022752,0.221509,0.320267,0.219026,0.217786,0.116545,-0.184695,-0.485935,-0.187176,-0.188417,-0.389658,-0.290900,-0.592144,-0.693388,-0.494634,-0.595881,-0.597130,-0.598381,0.000366,0.399110,0.197853,-0.203408,-0.504671,-0.805937,-1.107207,-1.108479,-0.909756,-0.711036,-0.612320,-0.713609,-0.914902,-0.516199,-0.317501,-0.318809,-0.520121,-0.421439,-0.222762,-0.224091,-0.225426,-0.326767,-0.128114,0.070532,0.469171,0.067803,0.066429,-0.034953,-0.036343,0.362260,0.160855,0.759442,0.758020,0.456590,0.155152,0.153704,0.352248,0.250782,-0.050693,0.547822,0.446328,0.644824,0.343309,0.341785,0.040249,-0.161296,-0.462853,-0.064421,-0.066000,-0.067590,-0.069191,0.029195,0.127570,0.225933,-0.275716,-0.377377,-0.179051,0.319262,0.317563,0.515851,0.214125,0.112387,0.110636,0.708870,0.507092,0.605300,0.703493,1.001673,0.499839,0.597991,0.796129,0.994252,0.692361,0.390455,0.588534,0.886599,0.984649,0.582684,0.480703,0.678708,0.776698,1.274673,0.972632,0.570576,0.168505,0.566418,0.764316,0.762198,0.360065,0.357916,0.455752,0.153572,0.151377,0.049166,0.346940,0.644698,0.642441,0.440168,0.237880,0.635577,0.733258,0.530923,0.228574,-0.073791,0.223830,0.521435,0.319026,0.616601,0.514162,0.811709,1.109241,1.206758,0.504262,0.501751,0.899226,1.296688,1.294136,0.791571,0.388993,0.886401,1.183797,0.781181,0.378552,0.475911,0.373258,0.470593,0.467917,0.865231,0.562533,0.659825,0.457107,0.654379,0.851642,0.648895,0.246140,0.443376,-0.259396,-0.262175,0.035038,0.232245,0.329445,0.026639,0.223827,0.021011,-0.281811,-0.084636,0.312535,-0.090297,0.006868,-0.095968,-0.098807,0.098354,0.095515,0.292675,0.189837,-0.313000,-0.515835,-0.318668,-0.321496,-0.424321,-0.427141,-0.129956,0.167235,0.364434,0.261640,-0.041146,-0.243922,-0.446688,-0.749444,-0.552188,-0.854919,-1.057637,-0.860341,-0.663030,-0.965703,-0.568359,-0.370997,-0.373616,-0.676215,-1.178794,-0.981351,-0.883885,-0.986395,-0.888880,-0.791340,-0.893772,-1.196176,-0.798551,-0.900895,-1.003207,-1.105487,-0.907733,-0.609943,-0.612117,-0.714253,-0.716351,-0.418407,-0.220423,0.077605,-0.124323,-0.326205,-0.828040,-1.029827,-0.831564,-0.433249,-0.334882,-0.236460,-0.337983,-0.839448,-0.740854,-0.642200,-0.943484,-0.744704,-1.045858,-0.646946,-0.747965,-0.548914,-0.949791,-1.450595,-1.651322,-1.051973,-1.052544,-0.953035,-1.153442,-1.353766,-1.354003,-1.254151,-1.154209,-0.754176,-0.254048,-0.653823,-0.653501,-0.553079,-0.252554,-0.551925,-0.651190,-0.750346,-0.949392,-0.948325,-0.847143,-1.045843,-0.944425,-0.942885,-0.541221,-0.139431,-0.237512,-0.135462,-0.233280,-0.330962,-0.628506,-0.625909,-0.323170,-0.620286,-0.917254,-0.814071,-0.710736,-0.807246,-0.903598,-0.999789,-1.495817,-1.391679,-1.187373,-0.682896,-0.578244,-0.473417,-0.268410,-0.263221,-0.357847,-0.052285,-0.146533,-0.140587,-0.234445,0.071896,0.378440,0.385189,0.492145,0.999313,0.606695,0.514295,0.422114,0.530157,1.138427,0.746926,0.755658,1.164625,0.873833,0.783282,0.492977,0.702922,0.513118,0.623570,0.834281,1.045255,0.956494,0.868002,0.879783,0.991839,1.004176,0.816795,1.029701,0.942897,1.356387,1.170174,1.084261,0.698654,0.613354,0.528367,0.343695,-0.140658,0.075313,-0.208390,-0.391761,0.325201,0.442502,0.560146
1,3,-0.057103,-0.053534,-0.449965,-0.146394,-0.142821,-0.339249,-0.535675,-0.132102,-0.328528,-0.124954,-0.121380,-0.117807,-0.514234,-0.610662,-0.207091,-0.203521,-0.699952,-0.996385,-0.892820,-0.389256,-0.885695,-1.082135,-0.978579,-0.675025,-0.871473,-0.967925,-1.164380,-0.660838,-0.457300,-0.953765,-0.850234,-0.846708,-0.543185,-0.039667,-0.236154,-0.532645,-0.529141,-0.225643,-0.022149,0.181339,-0.215178,-0.411702,-0.608231,-0.504766,-0.001308,-0.197855,-0.394410,-0.390971,0.012461,-0.584113,-0.780695,-0.977285,-0.473882,-0.170486,-0.067098,-0.063718,-0.460346,-0.656982,-0.353627,0.249720,0.053059,-0.143611,-0.540290,0.063022,0.466325,0.269618,-0.227098,-0.223823,0.379442,0.382698,0.485943,0.389179,0.392405,0.995620,0.898825,0.402019,-0.094797,-0.491623,-0.488460,-0.185309,-0.282168,-0.379038,-0.275920,0.127188,0.130284,-0.366632,-0.563559,-0.660498,-0.657448,-0.554410,-0.751384,-1.048370,-0.845369,-0.742379,-0.239402,0.163564,-0.633484,-1.130543,-1.127616,-0.524701,-0.521798,-0.418908,-0.616031,-0.513167,-0.510316,-0.507478,-0.304653,-0.201841,-0.399042,-0.896257,-1.093484,-0.790725,-0.387980,0.114752,0.017471,0.320176,0.222868,-0.174454,-0.271790,0.130861,0.133498,0.436122,0.838731,0.941327,1.043909,0.846477,0.649031,0.751571,1.054097,0.656610,-0.140892,-0.038408,0.064063,0.466519,0.668961,0.671390,-0.026196,-0.323796,0.278590,0.580961,0.983319,0.985663,0.587992,0.290308,0.492609,1.294896,1.097169,1.199428,1.001673,0.803904,0.606121,0.608323,0.810512,1.212686,1.814847,1.516993,1.119126,0.521244,0.423349,0.625439,0.427516,0.429579,0.431628,0.633663,1.235684,0.837692,0.739686,0.741666,0.743632,0.545585,-0.052476,-0.350551,0.251361,0.653260,0.855145,0.757017,0.358875,0.460720,0.762552,0.664370,0.566175,0.067968,-0.030253,0.171513,0.273266,0.375006,0.276734,-0.021552,-0.119850,-0.218160,-0.216484,-0.714820,-0.513168,-0.211529,0.190098,0.191713,-0.206685,-0.405094,-0.503516,-0.201950,-0.100395,-0.198853,-0.597322,-0.795803,-0.694295,-0.492799,0.008686,-0.089840,-0.588378,-0.386927,-0.685487,-0.984058,-1.082640,-0.781233,-0.679836,-0.878450,-0.877074,-0.875709,-0.574354,-0.573009,-0.871675,-0.570350,-0.869035,-0.767730,-0.766435,-1.165150,-0.963873,-0.562607,-0.761349,-1.360100,-1.458861,-1.357631,-1.256409,-1.255196,-1.253991,-1.152795,-1.351608,-1.550428,-1.349257,-1.048094,-0.846938,-0.645790,-0.944650,-0.843518,-0.342392,-0.141274,-0.640163,-0.439059,-0.537962,-0.336872,-0.435788,-0.734711,-0.833640,-0.832575,-0.631517,-0.030464,0.270583,0.171624,0.272660,0.073690,-0.125285,-0.024266,0.076749,0.477759,0.378764,0.179764,-0.019240,-0.118248,-0.217261,-0.516278,-0.215298,-0.114323,-0.313351,-0.312383,-0.911418,-0.710456,-0.509498,-0.308543,-0.107590,-0.006640,0.294307,0.595252,0.396194,0.497135,0.798073,0.499009,0.599944,0.400877,0.001808,0.402738,0.703667,0.704594,0.705521,0.806446,0.907371,0.908296,0.909220,0.910143,1.111067,0.611990,0.512913,0.013837,0.014761,0.115685,0.316610,0.617535,0.818461,0.619388,0.320316,0.421246,0.422176,0.923108,0.724042,0.124977,0.425914,0.626853,0.827793,1.028736,0.729681,0.730629,0.731578,0.832531,0.833486,1.234444,1.135404,0.936368,0.937335,0.838305,1.039278,0.740255,0.441235,0.542219,0.943206,0.944197,0.645193,0.546192,0.547195,0.448203,0.549215,0.450231,0.551252,0.852277,0.853307,0.854342,0.755382,0.756426,0.957476,0.958531,0.759591,0.460656,0.561726,0.362803,0.363884,0.464972,0.166065,-0.032837,0.268268,0.469379,0.370496,0.371618,-0.227253,-0.426117,-0.124976,0.076172,-0.222673,-0.521512,-0.420344,-0.519170,-0.517988,-0.916800,-0.615605,-0.314403,-0.213194,0.188022,-0.310754,-0.209524,0.191715,0.292960,0.494213,0.595474,0.696742,0.098018,-0.000699,-0.299407,-0.398108,0.003199,0.004514,0.105838,-0.192831,0.108509,0.609857,0.511213,0.312577,0.113950,0.315332,0.216722,0.518121,1.019528,1.120944,0.822369,0.623803,0.925246,0.826698,0.128159,-0.670371,-0.168892,0.632596,0.834094,0.735601,0.337118,-0.161356,-0.059820,0.041725,0.443280,0.444845,0.746419,0.848004,0.449598,0.351203,0.152817,0.154442,0.356077,-0.142278,-0.240623,-0.238957,-0.337281,-0.335594,-0.433896,-0.632188,-1.130469,-1.428740,-1.126999,-0.725248,-0.823485,-1.321711,-1.119927,-0.718131,-0.916323,-1.014505,-1.312675,-1.410833,-1.308980,-1.307115,-1.505238,-1.803350,-1.501450,-1.299537,-1.497613,-1.895677,-2.093728,-2.191767,-1.889794,-1.787808,-1.785810,-1.483800,-1.481776,-1.279740,-0.877691,-1.275630,-1.373555,-1.671467,-1.369366,-1.567252,-2.065125,-2.062984,-1.860830,-1.458662,-1.456481,-1.154286,-1.152077,-1.249854,-0.947618,-0.645367,-1.043102,-1.940823,-1.438530,-0.836223,-0.233901,-0.131564,-0.029213,-0.126848,0.275533,0.577928,0.780338,0.782763,0.585204,0.187659,-0.009871,0.192615,0.595117,1.197633,1.000165,0.502713,0.305277,0.507856,0.710451,0.613062,0.215688,0.718331,0.620990,0.723665,0.526357,0.729064,0.831788,0.634529,0.337285,-0.059941,0.642849,0.945656,1.148479,0.951319,0.554176,0.657050,0.859941,1.262849,0.765774,0.568716,-0.028325,-0.025348,0.177645,0.480656,0.683684,0.386729,-0.110208,-0.007127,0.495970,0.699085,0.902218,0.705368,0.608536,0.511721,0.514924,0.718145,0.721383,0.724638,0.527912,0.431203,0.434512,-0.162162,-0.458818,-0.455456,-0.152077,-0.148680,0.054735,0.058167,0.561617,0.365085,-0.031430,-0.927927,-0.824407,-0.420869,-0.017314,-0.313741,-0.410151,-0.406543,-0.202918,-0.399276,-0.395616,-0.391940,-0.188246,-0.284535,-0.180807,-0.477062,-0.273300,-0.469521,-0.065725,-0.461913,-0.458084,-0.154239,-0.350377,-0.546499,-0.242604,-0.038693,0.065234,-0.330823,-0.526864,-0.822890,-0.618899,-0.214893,-0.110872,-0.106835,-0.302783,-0.298716,-0.094634,0.109462,-0.486426,-0.082300,0.321841,0.125995,0.130164,0.234347,0.338544,0.442754,0.146978,-0.248785,-0.444535,-0.140272,-0.135996,0.068293,0.172594,-0.123093,-0.418768,-0.014431,0.089918,0.394278,0.498649,0.403032,0.007425,0.411829,0.716243,1.020667,1.425101,1.229545,0.833998,1.038461,1.342932,1.047412,0.751901,-0.043602,-0.439098,-0.134585,0.469935,0.874462,1.178995,0.683536,-0.111917,-0.307364,-0.202806,0.101758,0.006328,0.110902,0.215480,0.120064,0.424651,0.129241,-0.166165,-0.261567,0.143033,0.047635,-0.047761,0.156846,0.461453,0.766062,0.570672,0.675282,0.779892,0.984502,0.989111,0.693720,0.598327,0.602933,0.407536,0.612138,0.816736,1.221332,1.325924,1.430512,1.135096,0.539676,0.544251,1.248820,1.653384,1.257942,1.262493,1.367038,1.171575,0.876105,1.080627,1.385140,1.389645,1.694141,1.898627,1.903103,2.007569,1.312025,1.216469,1.120902,1.625322,1.929731,1.634127,1.338509,0.742879,0.947234,0.851575,1.355901,1.360212,1.364508,0.968788,0.573051,0.777298,0.981527,1.185739,1.189933,0.394109,0.698266,0.702404,0.706522,0.510620,0.314698,0.218755,0.722791,0.326806,0.030798,-0.165232,0.438715,0.342640,-0.253460,-0.549583,-0.345731,-0.641903,-0.238100,-0.234323,-0.330572,-0.826847,-1.323149,-1.319477,-1.115833,-1.312217,-1.308628,-0.905069,-0.901538,-0.998036,-1.194564,-1.291122,-1.087709,-1.384328,-1.580978,-1.977658,-1.474371,-0.971115,-0.667892,-1.364701,-1.761544,-1.258419,-0.955329,-0.952272,-1.449249,-1.146261,-1.143308,-0.440390,-1.037507,-0.634660,-0.431850,-0.429075,-1.126337,-1.023636,-1.120972,-1.018346,-1.015757,-1.213206,-1.310693,-1.008219,-1.105783,-1.503386,-1.601029,-1.298710,-1.196432,-0.994193,-1.291994,-0.989835,-1.087717,-0.885640,-0.783603,-1.081608,-0.979653,-0.977740,-0.875869,-0.174039,-0.072251,-0.270506,-0.468802,-0.167141,-0.365522,-0.363946,-0.362413,-0.460922,-0.659475,-0.558071,-0.856710,-0.855392,-0.754118,-0.752887,-0.551700,-0.250556,-0.449457,-0.648401,-0.547389,-0.646421,-0.445497,0.055383,-0.143781,-0.242989,-0.342241,-0.241538,-0.240879,0.259736,0.360307,0.260834,-0.238684,-0.038246,0.462148,0.662498,-0.037196,-0.236934,-0.236717,0.063457,-0.236414,-0.436328,0.063714,0.563712,0.663666,0.463577,0.463444,0.063268,0.063048,0.262785,0.062479,-0.337870,-0.438262,-0.238697,0.260825,0.260305,-0.240257,-0.740862,-0.741509,-0.542198,-0.142929,-0.243701,-0.444515,-0.845370,-0.846266,-1.147203,-0.948181,-0.949200,-0.950259,-1.051358,-1.052497,-0.853676,-0.754894,-0.956151,-1.057448,-0.858783,-0.960158,-1.061570,-0.963021,-0.864509,-0.266035,-0.167598,-0.269199,0.029164,-0.172510,0.025780,0.124034,0.122252,-0.379565,-0.481418,-0.583305,0.114773,0.612817,0.810827,0.508803,0.106747,0.204657,0.002534,-0.299621,0.098192,0.395974,0.393724,0.191443,0.089131,0.286789,0.284418,0.582016,0.579585,0.677126,0.874637,0.572121,0.769577,1.467005,1.464407,1.161781,0.659129,0.856452,0.853749,0.851020,0.848267,0.845489,1.342688,1.439863,1.137014,0.934143,0.931249,0.628334,0.925397,0.722438,1.119459,1.116459,0.613440,0.510401,0.907342,1.504265,1.301170,0.398057,-0.305073,-0.008221,0.288615,-0.014566,0.382238,0.279027,0.275801,0.172560,0.469305,0.266037,-0.037245,0.159461,-0.043845,-0.647163,-0.650493,-0.353834,-0.057185,0.039454,-0.063916,-0.267296,-0.270685,0.225918,0.422513,0.519101,0.815682,0.812257,0.808825,0.305388,0.001946,0.998499,1.095048,0.891593,0.788134,0.384673,0.381210,0.677744,0.474277,0.470809,-0.032660,0.163871,0.260402,0.156934,0.153468,0.150002,0.246539,0.343079,0.339622,0.336168,0.432717,0.829272,1.325831,0.322395,-0.181035,0.115541,0.512124,0.408714,0.205311,0.101917,0.098530,0.695153,0.091785,0.088426,-0.214922,-0.018260,0.478414,0.675099,0.771796,0.268505,0.265228,0.261963,-0.141288,-0.444524,-0.147746,-0.350953,-0.354145,-0.557320,-0.460480,-0.263622,-0.366748,-0.669855,-0.672945,-1.076016,-0.979068,-0.582101,-0.185114,-0.588107,-0.791079,-0.794030,-0.596960,0.000132,0.197247,-0.005616,-0.108456,0.588728,0.885936,0.483168,0.080425,0.377707,0.375015,0.872349,0.069709,-0.532905,-0.135490,-0.138049,0.259421,0.056919,-0.245554,-0.247999,-0.350413,0.247202,0.444848,0.042524,-0.159768,-0.262029,0.035742,-0.066455,-0.468620,-0.270751,-0.372849,-0.474914,-0.876944,-0.878940,-0.680901,-0.682827,-0.984718,-0.686573,-0.788391,-0.890173,-0.891918,-0.993626,-0.995296,-1.296929,-0.898523,-1.200079,-0.701595,-0.903073,-0.804511,-0.805909,-0.807267,-0.508584,-0.609861,-0.511096,-0.612290,-0.713443,-0.414553,0.084379,-0.016646,-0.517628,-0.918567,-0.719463,-0.620315,-0.621123,-1.521886,-1.522605,-0.923279,-0.623908,-0.824492,-0.725029,-0.525521,-1.225967,-1.226367,-0.526719,-0.127025,-0.427284,-0.627495,-1.027659,-0.927775,-0.827843,-0.427863,-0.127834,-0.327757,-0.727631,-0.227455,-0.127231,-0.126957,0.273367,0.473740,0.374163,0.274637,0.075161,-0.324265,-0.223640,-0.022964,0.077762,0.578540,0.479369,0.380250,0.081182,-0.317835,-0.116800,0.284287,0.585426,0.486618,0.187861,0.289156,0.090504,0.491905,0.693358,0.694863,0.696421,0.498032,0.699696,0.401413,0.703182,1.105004,1.206880,1.308808,0.910790,0.712824,0.514911,0.717052,1.119246,1.221492,0.723792,0.726145,0.828551,1.031010,1.233522,1.436086,1.338704,1.041374,0.944098,0.946874,0.549702,0.452584,0.755518,0.858504,0.861542,0.864633,1.167776,1.270971,1.274218,1.377517,0.880867,0.684269,0.887722,0.991227,1.394783,1.098389,0.502047,0.705755,1.009513,1.013322,0.817180,1.021089,0.625047,0.829055,0.633112,0.237218,0.241373,0.045577,0.149829,-0.145871,-0.141523,-0.137128,-0.132685,-0.328195,-0.023659,-0.419075,-0.414446,-0.209771,0.094950,0.499717,0.104528,-0.290616,-0.285715,-0.080770,-0.075782,-0.270750,-0.265675,-0.260558,0.344602,0.749804,0.655048,0.760332,0.765658,0.971024,0.876430,0.381876,-0.012639,0.492885,0.298448,0.204048,0.209686,0.015361,0.221073,0.426822,0.032606,-0.261575,0.144280,0.450169,0.256092,-0.037952,-0.331963,-0.325941,-0.219887,-0.413801,-0.207685,-0.001538,-0.195361,-0.089154,-0.382919,-0.276655,-0.170363,-0.464044,-0.657698,-0.451326,-0.444928,-0.538505,-0.732058,-1.225586,-1.119091,-1.412574,-0.806034,-0.699473,-0.392890,-0.386288,-0.279665,-0.373023,-0.566363,-0.659685,-0.552990,-0.646277,-0.639549,-0.732806,-0.726048,-0.419276,-0.612490,-0.905692,-0.498881,-0.192060,0.214773,0.121615,-0.371534,-0.264673,-0.257805,-0.050930,0.055952,0.162840,0.369732,0.676629,0.283530,-0.009567,-0.202662,-0.195755,0.111153,0.318060,0.224966,0.431871,0.638773,0.245672,0.152567,-0.240542,-0.133658,-0.326780,-0.119908,0.086955,0.793809,0.700654,0.107488,-0.585688,-0.578877,-0.672079,-0.465295,-0.058525,-0.051770,0.354968,0.561689,0.568392,0.375077,-0.218259,-0.411615,0.295008,0.401608,0.508185,0.414737,0.621265,0.227767,0.034242,-0.359311,0.147107,0.353496,0.659854,0.566181,0.372476,-0.121263,-0.115037,-0.008845,0.197310,0.303428,0.309508,0.015549,-0.378450,-0.672491,-0.666573,-0.760698,-1.054868,-1.049083,-1.543343,-1.237651,-1.832007,-2.226412,-1.920867,-1.715373,-1.909932,-1.904544,-1.999210,-1.593931,-1.588709,-2.183545,-2.078439,-1.773393,-1.368407,-1.363484,-1.558623,-1.553826,-1.249095,-0.944430,-0.839832,-0.635302,-0.830842,-0.826453,-0.622136,-0.517892,-0.413722,-0.409628,-0.405610,-0.001670,-0.097808,-0.494027,-0.790327,-0.586709,-0.483175,-0.579726,-0.476363,-1.073087,-0.969899,-0.566802,-0.063795,0.139119,0.041940,-0.355334,0.147296,0.249829,0.552263,0.054597,0.056830,0.358961,0.360988,0.362910,0.664725,0.166433,0.368031,0.469519,0.470896,0.872159,1.473307,1.374340,1.175256,1.176052,1.176729,0.977284,0.977717,0.678025,0.778207,0.878262,0.778189,0.477985,0.377650,0.777182,0.876580,1.075841,1.174965,0.973950,1.272795,1.371498,1.370057,1.568471,1.566738,0.964858,0.962827,0.460646,0.358311,0.255823,-0.346822,-0.349625,0.247413,0.344291,-0.158995,-0.362444,-0.466059,-0.069841,0.126207,0.222085,-0.282210,0.013321,0.208676,0.503854,0.498852,0.393669,0.288304,-0.017246,-0.522982,-0.228906,0.264980,0.258674,0.352175,0.245481,0.138590,0.231500,0.724209,1.216716,1.109019,0.701115,0.993004,0.684682,0.476149,0.667401,0.758439,0.449258,0.039858,0.130237,-0.079608,0.110322,0.400025,0.489499,0.178741,0.067750,0.356523,0.445060,0.633357,0.621412,0.609225,0.496792,0.384111,0.071181,0.057999,0.544563,0.830872,0.616922,0.502712,0.588240,0.373504,-0.441499,-0.456770,0.027687,0.011872,0.595781,0.279412,-0.137236,-0.754166,-0.071380,0.611120,0.493330,-0.124750,-0.443123,-0.161792,0.119241,0.399974,0.280405,0.460531,0.340350,0.319859,-0.100943,0.277940,0.156507,0.134755,0.312682,0.190285,0.267561,0.044510,0.321127,0.397410,0.273358,0.048967,-0.275765,-0.200840,-0.626261,-1.252030,-1.278151,-1.204625,-0.931454,-1.058643,-0.686192,-0.814106,-1.042385,-1.171033,-0.800053,-0.529447,-0.659218,-0.789368,-1.019900,-1.050816,-1.082120,-0.713814,-0.445901,-0.378383
