1,3,0.338162,0.342764,0.147385,0.152023,-0.043320,0.061355,0.066047,0.070757,-0.224515,-0.219770,-0.015007,-0.210227,0.294570,0.499385,0.504216,0.109065,0.413930,0.718812,0.323711,0.228626,0.233559,0.438507,0.543472,-0.051547,-0.346550,-0.441537,-0.136507,-0.131462,-0.226401,-0.121324,0.283768,0.088876,0.094000,-0.200861,-0.295707,-0.390537,-0.785353,-0.680153,-0.374938,0.130292,-0.064464,-0.559204,-0.953930,-1.248641,-0.943338,-0.838020,-0.832687,-0.927340,-1.321979,-1.316604,-0.911214,-0.705811,-0.700393,-0.994961,-1.089515,-1.084056,-0.678582,-0.473095,-1.067594,-1.362080,-1.556551,-1.551010,-1.045454,-1.039886,-0.934303,-1.328708,-1.223099,-1.417477,-1.511841,-1.506193,-1.100531,-0.494856,-0.389168,-0.083467,-0.477753,-0.472026,-0.466286,-0.460533,-0.254767,-0.248988,-0.043197,-0.237392,-0.031575,-0.025745,0.280098,0.085953,-0.308179,0.097702,0.303595,-0.190498,-0.384580,0.021352,0.327296,0.433252,0.039222,-0.054797,0.451198,0.957205,0.963224,0.169256,-0.024699,0.181358,0.487428,0.393510,0.199605,-0.094288,-0.088168,-0.282036,-0.175891,-0.369734,-0.163564,-0.157381,-0.251186,-0.444979,-0.638759,-1.032526,-0.426281,-0.220023,-0.113753,-0.007470,0.298826,-0.494866,-0.688545,-0.882211,-0.675865,-0.869507,-0.963135,-0.256751,-0.150354,-0.143945,-0.437523,-0.431088,-0.524641,-0.518180,-0.611707,-0.405221,-0.798723,-1.092212,-1.085688,-0.379151,-0.372601,-0.066039,-0.359463,-0.552875,-0.846274,-0.839661,-0.633034,-0.926394,-0.519742,-0.013077,-0.306399,-0.899708,-0.693004,-0.586287,-0.379558,-0.172815,0.133940,0.740708,1.047489,0.754283,0.261090,0.067910,0.574743,0.881588,0.988446,0.895317,0.902201,0.909098,0.716008,1.022930,1.329865,1.536813,0.443773,0.250747,0.457732,0.664731,0.771742,0.678766,0.985803,0.692852,0.699913,0.406987,0.514073,0.521172,0.228283,0.335407,0.642543,0.749691,0.556851,0.564023,-0.028792,0.178404,-0.014388,0.192833,0.400065,0.707309,0.914565,0.721832,0.729111,0.836402,0.543704,0.351017,0.358342,0.665677,0.673024,0.180382,0.087751,0.395131,0.202522,0.009923,0.217335,0.224757,0.532190,0.139633,-0.152914,-0.445450,-0.637977,-0.530494,-0.523001,-0.615499,-0.507987,-0.600466,-0.692936,-0.685397,-0.577848,-0.670291,-0.462725,-0.355151,-0.547568,-1.039977,-0.932378,-0.624771,-0.317157,-0.409534,-0.501904,-0.394267,0.013377,-0.078972,-0.371314,0.136350,0.244021,0.251699,0.259382,0.567071,0.374766,-0.017534,0.190172,0.297882,0.405598,0.613318,0.821043,0.728772,0.636506,0.544243,0.451983,0.459728,0.367475,-0.124775,-0.117022,0.390734,0.698492,0.406252,0.614014,0.621777,0.429542,0.037308,0.045075,0.452842,0.460610,0.068378,-0.123855,-0.216087,0.291679,0.199445,0.007209,-0.485028,-0.477266,0.130493,0.138250,0.046004,0.253756,0.261504,0.669249,0.376991,0.284728,0.092461,0.500190,0.607914,0.115632,-0.076655,0.131053,0.638754,1.146449,1.354138,1.061819,1.069493,1.277160,1.284819,1.092470,0.800112,0.707745,0.715369,0.822984,0.830589,0.438184,0.245769,0.253343,0.860906,1.268458,1.075998,0.783526,0.491041,0.798544,1.306034,1.113511,1.020974,0.928423,0.635858,0.443278,0.950684,0.758074,0.765449,0.972807,1.280150,0.887475,0.094784,0.202076,0.309350,0.616607,0.723845,0.431064,0.538265,1.045446,1.052608,0.859751,0.466872,0.973974,0.581055,0.488114,0.195152,0.302169,0.209163,0.316135,0.523084,0.830010,0.836913,0.743792,0.350647,0.757478,1.164284,1.071066,0.677822,0.084553,0.091258,0.297936,0.604589,0.711215,0.417814,-0.375615,-0.569071,-0.362555,-0.456066,-0.249607,-0.243175,0.163227,-0.230400,-0.524057,-0.417743,-0.611459,-0.605205,-0.698982,-0.892790,-0.686628,-0.680498,-0.374400,-0.868333,-1.062298,-1.356295,-1.350325,-1.244387,-1.738482,-1.632610,-1.126772,-1.120967,-0.715195,-0.809458,-0.903755,-0.698086,-0.692451,-0.786851,-0.681286,-0.675756,-0.770262,-1.164802,-1.159378,-0.853990,-0.848638,-1.143322,-1.138042,-0.932798,-0.927590,-1.122419,-1.117285,-1.312188,-1.107128,-1.002104,-1.097118,-0.992169,-0.987258,-1.182384,-1.377547,-1.372748,-1.767987,-1.663264,-1.658578,-1.253931,-1.349321,-1.344750,-1.440217,-1.635722,-1.331265,-1.126846,-0.822466,-0.918124,-1.513820,-1.909555,-2.205328,-1.701139,-1.196989,-1.392877,-0.688804,-0.884769,-0.980772,-0.776814,-0.572894,-0.669013,-1.165169,-1.261364,-0.857597,-0.853869,-1.250178,-1.046525,-0.342911,-0.539334,-0.735796,-0.832295,-0.828831,-0.625406,0.177982,0.381333,-0.115354,-0.112078,-0.008839,0.194363,0.097528,-0.199344,-0.396253,-0.793199,-0.390180,0.212801,0.715747,0.218657,-0.378470,-0.275632,-0.072830,-0.170063,-0.067332,-0.064636,-0.061974,0.340652,-0.056756,-0.154199,0.048324,0.550812,0.753267,0.855688,0.758075,0.960429,0.562750,0.365037,0.067292,0.569515,0.971704,0.873862,0.675988,0.778082,1.180144,1.282175,0.784175,0.686144,0.288082,0.089990,0.191868,0.793715,0.895533,1.097321,1.299080,1.000810,0.602512,0.704184,1.105829,1.207445,1.009033,0.710594,0.912128,0.813634,0.815114,0.416567,0.617994,0.219394,-0.079231,0.122119,0.023443,0.124742,0.326016,0.227266,-0.271508,-0.770307,-0.369129,0.232026,0.333157,0.034266,-0.864648,-0.863585,-0.462544,0.038476,0.239474,0.040451,0.441407,0.342342,0.143256,-0.155849,0.145025,-0.054120,0.246715,0.447531,0.248329,0.349108,0.349868,0.550611,0.551335,0.452043,0.552733,0.153406,0.154062,0.154702,0.055325,0.255933,0.256526,0.157102,0.257664,0.058211,-0.241257,0.159261,0.159765,0.160255,0.460732,0.561195,0.461645,0.062083,-0.137492,-0.037080,0.463321,0.463710,0.164087,0.364453,0.064808,0.065152,0.165486,0.165810,0.466123,0.466426,0.466720,0.767005,0.767280,0.667547,0.567805,0.668054,0.868296,0.568529,0.568754,0.868972,0.469183,-0.030613,-0.030416,0.069774,0.369957,0.270135,0.170306,0.170472,0.570632,0.270786,-0.229064,-0.428920,-0.628781,-0.228646,0.071485,0.071611,0.271733,-0.028148,0.171966,-0.027923,0.572185,0.872290,1.072392,0.472491,0.472587,0.572681,0.272772,0.272862,0.272949,0.173035,0.673119,0.373202,0.073283,0.073363,0.573442,0.273520,0.173598,-0.126325,-0.326249,-0.626173,-0.126097,0.173979,0.174055,0.074131,-0.225793,-0.325716,0.074361,-0.125560,-0.025482,-0.125402,-0.225321,-0.325239,-0.225156,-0.425071,-0.324985,0.075102,0.075192,-0.124718,-0.424625,-0.424530,-0.424434,-0.224335,-0.024234,0.375869,0.075975,-0.023917,-0.123807,0.076306,0.176421,0.176539,-0.023340,-0.223216,-0.123090,-0.022960,0.177172,0.777308,0.677446,0.977588,0.977733,1.077881,1.078032,0.778187,0.478344,0.378506,0.278670,0.178838,0.279009,0.279184,-0.020637,-0.020456,-0.120270,-0.420081,-0.519889,-0.319693,-0.419493,-0.419290,-0.019084,-0.018874,-0.218660,-0.918442,-1.318221,-1.117997,-1.017769,-0.817538,-1.017302,-0.917064,-1.016822,-1.316576,-1.116328,-1.116075,-0.515820,-0.015560,-0.115298,0.084968,-0.714763,-0.914491,-0.614216,-1.013938,-0.613656,-0.913372,-0.813084,-1.112794,-0.712500,-0.912204,-1.411905,-1.611603,-1.911299,-1.710992,-1.110683,-0.910371,-1.210057,-1.709740,-1.909421,-1.609100,-1.308777,-1.108452,-1.008125,-1.507797,-1.307466,-1.007134,-1.006800,-1.006465,-1.306129,-1.205791,-1.205452,-1.305112,-1.104771,-1.004429,-1.004086,-1.303743,-1.003399,-0.503055,-0.302711,0.097634,-0.002021,0.098323,0.198668,0.099012,-0.400645,-0.000302,0.100041,0.600382,0.900722,1.101062,1.101400,1.501736,1.202071,1.402405,1.502736,1.703066,2.003393,1.603718,1.504040,1.304360,1.504677,1.904991,1.405302,1.405609,1.405913,1.506213,1.506510,1.706802,1.307091,0.607375,0.707654,0.707929,0.908199,1.208463,0.908723,0.608976,0.809225,1.009467,1.009703,0.609933,0.710157,0.710374,1.210584,0.910787,0.610983,0.611171,0.311351,0.311524,0.111689,0.111845,0.311993,0.612132,0.812262,1.012383,1.112495,1.112597,0.612689,0.612772,0.412844,0.912905,1.412956,1.512996,1.413025,1.313043,1.713049,1.113043,0.713025,0.912995,1.312953,1.312897,1.412829,0.912748,0.812654,1.212546,1.212424,1.212288,0.712138,1.311973,1.411794,1.511599,1.611390,1.011165,0.910925,1.510669,1.410397,1.110108,0.709803,0.509482,0.309144,0.208788,0.508415,0.708025,0.507617,0.607191,0.506746,0.206284,-0.094197,-0.094697,0.104784,0.504246,0.703688,0.203111,-0.297486,-0.498103,-0.298740,-0.099397,0.299925,-0.100773,-0.101493,-0.302233,-0.002995,0.496222,0.695417,0.594591,0.193743,0.392872,0.291979,0.191064,0.390127,0.389166,0.188183,0.287177,0.086148,-0.514905,-1.115980,-0.617080,-0.318203,-0.019349,-0.320520,-0.821715,-0.722933,-0.524176,-0.425443,-0.826735,-1.228051,-1.129392,-1.330757,-1.232147,-1.433562,-1.935001,-1.436466,-0.837956,-0.539470,-0.941010,-1.542575,-1.444165,-1.545781,-1.447421,-1.349087,-1.550778,-1.552495,-1.954237,-1.956004,-1.957797,-1.759615,-2.161458,-1.963327,-2.065221,-1.867140,-1.969085,-1.871054,-1.873049,-1.975070,-1.477115,-1.679185,-2.081280,-1.783400,-1.385545,-1.087715,-1.189909,-0.492128,-0.594372,-0.696639,-0.498932,-0.101248,-0.403588,-0.505952,-0.608341,-0.210752,0.086812,0.584354,0.081872,-0.020633,-0.123161,-0.325712,-0.028285,0.169119,-0.033499,-0.036139,-0.338801,-0.341485,-0.144190,-0.246916,-0.149663,-0.052431,-0.055220,0.341971,0.439142,-0.063707,-0.166576,-0.069464,0.127629,0.324702,0.721758,0.718795,0.315814,-0.087185,-0.090202,0.206765,0.303714,0.300647,-0.102436,0.294465,0.491350,0.788219,0.485074,-0.018086,-0.221261,-0.524449,-0.227651,0.069133,-0.334095,-0.437337,-0.640590,-0.543855,-0.447132,-0.650421,-1.253720,-1.157029,-1.160349,-1.463678,-0.767016,-0.770363,-0.673719,-0.677083,-0.780455,-1.383834,-0.987220,-0.690612,-0.694010,-0.597414,-0.700823,-0.504237,-0.607656,-0.511078,-0.814504,-0.717933,-0.821364,-0.624798,-0.528233,-0.731670,-0.735108,-0.838546,-0.841984,-0.445421,0.151142,0.247707,0.044274,-0.259158,-0.262586,-0.166011,0.130568,-0.072849,0.023738,0.120330,0.216928,0.313532,0.110143,0.106760,-0.196615,-0.099982,0.096659,0.193309,-0.310031,-0.013362,0.283317,-0.119993,-0.023292,0.073421,0.070146,-0.033116,-0.336366,-0.139602,-0.342823,-0.346031,-0.349223,-0.352400,-0.155561,-0.058706,0.038166,-0.264945,-0.068038,0.328887,0.925830,1.422793,1.019775,0.516777,0.413800,0.210843,0.107908,0.004994,-0.397897,-0.400766,-0.403611,-0.406434,-0.409232,-0.312006,0.085245,0.582521,0.479822,0.577150,0.774504,0.371885,0.069293,0.266728,-0.235808,-0.538316,-0.340795,-0.243245,-0.445666,-0.648056,-0.750417,-0.952746,-0.555044,-0.557312,-0.559547,-0.461750,0.136079,-0.266059,-0.268163,-0.070235,0.127728,-0.274275,0.223756,0.321822,0.519922,0.418059,0.816231,1.014439,0.912683,1.210964,1.209281,1.607636,1.206028,1.204458,0.702925,1.201431,1.199975,0.998558,1.197179,1.295840,1.694540,1.493279,1.692058,1.390877,1.389737,1.188636,0.987576,1.086557,1.385579,1.284641,1.283745,0.782890,0.482077,0.881305,1.380575,0.979887,0.879241,0.678638,0.778076,0.677557,0.777081,0.776647,0.976255,0.975907,0.575601,0.375338,0.575118,0.874941,1.174807,1.474717,1.274669,1.174665,0.874704,0.574786,0.974911,1.275080,1.475291,0.875546,0.675845,0.876186,0.976571,1.176999,0.977470,1.277984,1.378541,1.179141,1.179784,0.880470,1.381199,1.581971,1.482785,1.283641,1.384541,1.285482,0.986466,0.687492,0.588560,0.789670,0.490821,-0.007985,-0.006751,0.094526,0.295843,0.197202,-0.201399,-0.399959,-0.498478,-0.396956,-0.795395,-0.693793,-0.692152,-0.290471,0.211250,0.113010,-0.185191,-0.383353,-0.381476,-0.279561,0.322392,0.324384,0.526413,0.628480,0.530584,0.532725,0.134903,0.237118,0.439369,0.741656,0.443979,0.446338,0.648731,0.751160,0.653624,0.556122,-0.141345,-0.038779,-0.036179,0.066455,0.469121,0.571821,0.074553,-0.022683,0.180113,-0.217059,-0.414200,-0.411310,-0.308389,-0.105438,0.297544,0.700555,0.403596,0.306666,-0.290235,-0.287108,0.016048,0.019232,0.122443,-0.174318,-0.371053,-0.067760,-0.364442,-0.161097,0.042273,-0.154331,-0.350910,-0.347464,-0.143994,-0.140500,-0.336982,-0.333441,-0.129877,-0.326289,-0.322680,-0.719048,-0.515394,-0.411719,-0.308022,-0.804305,-0.700567,-0.696809,-0.893031,-0.789233,-0.985416,-1.281581,-1.277726,-0.873853,-0.569962,-0.766054,-1.262128,-1.658185,-1.754225,-1.450249,-0.946256,-1.142248,-0.538224,-0.734184,-0.830130,-1.426061,-1.821978,-1.217881,-0.613769,-0.409645,-0.705507,-1.601356,-1.497192,-0.893016,-0.788828,-0.784628,-1.480416,-1.176193,-0.971959,-0.567715,-0.763459,-0.859194,-1.354919,-1.350633,-1.646339,-1.042035,-0.937722,-0.733400,-0.529070,-0.024732,-0.220385,-0.616031,-0.311669,-0.307300,-0.402923,-0.598540,-0.494150,-0.289754,-0.185351,-0.380943,-0.576528,-0.472108,-0.567683,-0.763252,-1.358816,-1.454375,-1.049930,-0.745480,-0.541026,-0.936568,-0.632106,-0.127641,0.076829,-0.018699,-0.414223,-0.609744,-0.505262,-0.800777,-0.596290,-0.391800,-0.587308,-0.782814,-0.778318,-0.573820,-0.569320,-0.364819,-0.160316,-0.155812,-0.451307,-0.746801,-1.042293,-1.037785,-0.733277,-0.428767,-0.624258,-1.019747,-1.115237,-1.010726,-0.906216,-0.601705,-0.397195,-0.092685,-0.488175,-0.383666,-1.379157,-0.674649,-0.770141,-0.765634,-0.361128,0.143376,0.147880,-0.147617,-0.243115,-0.338615,-0.134116,-0.129618,-0.225122,-0.020627,0.383866,0.588358,0.492847,0.397335,0.701822,1.006306,0.610789,0.415269,0.619748,0.724224,0.628698,1.133170,1.037640,0.842108,0.746573,0.851036,0.655496,0.259955,0.664410,0.768863,0.473314,0.077762,0.482207,0.486650,0.791089,0.595527,0.599961,0.604392,0.508821,0.613247,0.817670,1.022090,1.526507,1.330921,1.135332,0.639739,0.844144,1.348546,1.152944,1.057339,1.161731,1.166120,1.270505,1.374887,1.279266,1.083641,0.988013,1.092381,1.196746,0.901107,0.405465,0.509819,1.514170,2.218516,1.622860,1.027199,0.831535,0.835867,0.840195,0.744519,1.248839,1.353155,0.857468,0.961776,0.666080,0.570380,0.674676,0.478968,0.583256,0.287539,0.191818,-0.003907,0.200363,-0.095371,-0.091110,-0.186853,-0.582601,-0.978354,-0.474111,-0.369873,-0.765640,-1.161411,-1.457187,-1.252969,-0.348755,-0.244547,-0.140343,-0.136145,-0.431952,-0.527764,-0.423582,-0.419405,-0.415233,-0.711067,-0.506907,0.097248,0.401397,-0.094460,-0.290323,0.313808,0.217934,0.022053,0.126166,-0.169727,0.034373,0.338468,0.142555,0.446637,0.350711,0.354779,0.858840,0.462894,0.266941,-0.129018,0.175015,0.079041,0.083059,-0.112930,-0.208926,-0.404930,-0.600941,-0.696961,-0.192988,0.010977,-0.085066,-0.181117,-0.277177,-0.373245,-0.369321,-0.165406,-0.461499,-0.357602,-0.153713,-0.349833,-0.045962,-0.142101,0.161751,-0.034406,0.169427,0.173251,0.377065,0.480869,0.384662,0.488446,0.192220,-0.604017,-0.400265,0.003477,0.107208,0.010929,-0.485362,-0.581664,-0.377977,-0.374301,-0.770637,-0.566985,-0.163345,0.240284,0.043900,-0.352496,-0.348904,-0.345325,-0.241758
1,3,0.189357,-0.100947,-0.391249,-1.081548,-1.171845,-0.862141,-1.052437,-0.942732,-1.033028,-0.623325,-0.613623,-0.603923,-0.694226,-0.484533,-0.774842,-1.365156,-1.355475,-1.345800,-1.336130,-1.226466,-1.316809,-1.107160,-0.997519,-1.287887,-1.378263,-1.368649,-1.459045,-1.649451,-1.639869,-1.430298,-1.420740,-1.211194,-1.001661,-1.692142,-1.582637,-1.573146,-1.463671,-1.354211,-0.944767,-1.035340,-0.825930,-1.016537,-1.507163,-1.397806,-1.288469,-1.079151,-1.069853,-0.660575,-0.851317,-0.842081,-1.232866,-1.223674,-1.014503,-0.605356,-0.996232,-1.187132,-1.478055,-1.569003,-1.659977,-1.050975,-1.041999,-0.833049,-0.824126,-0.915230,-0.806360,-0.897519,-0.988705,-1.079920,-0.871164,-1.062436,-0.853738,-0.545070,-0.436431,-0.727824,-1.019247,-0.410701,-0.102186,-0.193703,-0.785252,-0.576834,-0.368448,-0.160095,-0.351776,-0.343489,-0.635237,-0.527019,-0.818835,-0.910685,-0.702571,-0.694492,-0.486448,-0.578440,-0.670467,-0.662531,-0.754631,-0.446768,-0.538942,-0.831152,-1.123400,-1.215685,-0.908008,-0.800369,-0.292768,-0.285206,-0.577682,-0.970196,-0.762749,-0.455342,-0.647973,-0.640644,-0.933354,-0.526104,-0.418894,-0.011724,-0.204594,-0.897504,0.009545,0.116554,0.523522,0.630449,0.437336,0.444181,0.450985,0.757748,0.664470,0.471150,0.077788,0.384385,0.890940,0.597454,0.403925,0.510354,0.916741,0.423086,0.829389,0.835649,0.541868,0.548043,0.654176,0.560267,0.866315,0.872320,0.678283,0.584203,0.790080,0.795914,0.601706,0.707455,0.613160,0.518823,0.624443,0.130020,0.035554,-0.258955,-0.053507,-0.048102,-0.442741,-0.437422,-0.632146,-0.326913,-0.721724,-0.816577,-0.411473,-0.606413,-0.601395,-0.396421,-0.491489,-0.286600,-0.281755,-0.476952,-0.372192,0.132525,0.237199,-0.058170,-0.253582,0.450964,0.555466,0.759926,0.864344,0.968719,1.073051,0.877340,0.981587,1.185791,1.089953,1.094073,0.698150,0.602184,0.906177,0.810127,0.814035,0.517901,0.821724,0.925506,1.129245,0.832943,0.436598,0.740212,1.043784,0.847314,0.750803,0.554249,0.657654,0.661018,0.364340,0.467620,0.470860,0.374057,0.277214,0.480329,-0.016597,-0.013564,-0.010572,-0.007621,0.095289,-0.601842,-0.599014,-0.196227,-0.393480,-0.490775,-0.388109,-0.085485,0.017099,0.119643,0.222146,0.124609,0.027032,-0.370586,-0.368244,-0.365941,-0.763680,-0.661458,-0.959276,-0.857134,-0.655032,-0.852969,-0.450947,-0.448964,-0.447021,-0.245117,-0.243253,-0.341429,-0.539644,-0.737898,-0.636192,-0.434525,-0.232897,-0.531309,-0.529760,-0.428250,-0.326779,-0.525347,0.076046,-0.022600,-0.121284,-0.320008,0.081229,0.382428,0.283588,0.484709,0.185792,0.286836,0.587841,0.488808,0.889736,0.990626,0.791478,0.292291,0.193065,0.493802,0.594500,0.495160,0.695782,0.796365,1.396911,1.597418,1.197888,0.798319,0.698712,0.899068,1.499385,1.099665,0.899907,1.200111,1.100277,1.000405,1.200496,0.700549,0.800564,0.900542,1.400482,0.900385,1.200250,0.700077,0.699867,1.199620,1.599335,1.799013,1.398654,0.798257,0.697823,1.097352,0.896844,0.296299,0.895716,1.395096,1.194440,0.893746,0.893016,1.192248,0.791444,0.290602,0.289724,0.388810,0.487858,0.286870,0.185846,0.384784,0.383687,0.082552,0.481382,0.580175,0.878931,0.677652,0.476336,0.474984,0.273597,0.472173,0.070713,-0.130783,-0.232314,-0.033882,0.264515,0.162877,-0.538797,-0.740507,-0.242251,-0.344032,-0.045847,-0.647697,-0.849583,-0.551503,-0.053458,-0.255448,-0.457473,-0.459532,-0.261625,0.136247,0.234085,-0.168112,-0.270342,-0.572606,0.025096,0.222765,0.420400,0.118002,-0.084430,-0.186894,-0.489392,-0.491922,0.005515,0.002919,-0.399708,-0.502369,-0.805061,-0.307784,-0.110540,-0.513327,-0.416146,-0.318995,-0.321876,-0.124787,-0.527729,-0.030702,0.366296,0.763263,0.360201,-0.042891,-0.046012,0.550838,0.247658,-0.255550,-0.358786,-0.362050,-0.065343,0.331337,0.127990,0.024615,-0.078787,-0.082215,0.014330,-0.089150,0.207343,0.703811,0.800254,0.296672,0.393065,0.289434,0.385779,0.282100,0.178398,0.474672,0.070924,-0.532846,-0.736638,-0.840452,-1.044288,-0.748144,-0.552021,-0.355918,-0.259835,-0.363772,-0.867728,-1.171702,-1.475695,-1.679706,-1.783734,-1.987780,-1.991842,-1.695920,-1.700014,-2.204124,-2.108249,-2.312388,-1.816542,-1.620709,-1.524889,-1.729083,-1.933288,-1.937505,-2.041734,-1.945974,-1.650224,-1.854484,-1.658753,-1.763032,-1.567319,-0.971614,-0.375916,-0.880225,-1.084540,-0.888862,-0.693189,-0.397520,-0.101856,-0.306196,-0.310538,-0.314884,-0.219231,-0.423580,-0.427931,-0.332281,-0.136631,-0.040981,0.054671,0.450325,0.445981,-0.258360,-0.562697,-0.067030,0.328642,0.224319,0.020003,-0.284307,-0.688610,-0.892904,-0.797191,-0.601468,-1.205735,-1.409992,-0.914238,-0.818472,-1.022694,-0.926904,-0.831099,-0.835281,-0.939447,-0.943599,-1.047734,-0.851852,-0.855953,-0.960036,-1.164100,-1.168145,-1.072170,-0.976174,-1.080157,-1.284118,-0.888056,-0.391971,0.104138,0.100271,0.296430,0.392615,0.688826,0.685065,0.681332,0.577627,0.373951,0.170305,0.166690,0.063107,-0.340445,-0.343965,-0.147451,-0.050903,0.045679,0.042296,0.138950,0.335639,0.432366,0.629131,0.925934,1.122776,1.219658,0.916581,0.713544,0.610549,0.707596,0.804687,0.301820,-0.001002,0.396221,0.893490,1.490804,0.988165,0.285573,0.183030,0.780535,0.778088,0.875692,0.573346,0.571051,0.368807,0.166616,0.164477,0.462391,0.460359,0.358382,-0.043541,0.254592,0.652782,0.951027,0.349330,0.347690,0.446109,0.544587,1.143123,0.541720,-0.059623,-0.060906,0.437873,0.436714,0.135617,0.134583,0.033612,0.132704,0.131861,-0.168917,-0.069631,0.129721,0.229139,0.228624,-0.271825,-0.572207,-0.272520,-0.272766,-0.072944,0.326948,0.126908,0.026938,0.127038,-0.272791,-0.272550,-0.172239,-0.471855,-0.471400,-0.270874,0.029725,0.130397,-0.168859,-0.468041,-1.067150,-0.966185,-0.565147,-0.264034,-0.762847,-0.661585,-0.360249,-0.058837,-0.157350,-0.655787,-0.454149,-0.352435,-0.650645,-0.748779,-0.646837,-0.444818,-0.442722,-0.440550,-0.738301,-0.335975,-0.133572,-0.131092,-0.128534,-0.325900,-0.023188,0.179601,0.082467,-0.314589,-0.311567,-0.408469,0.394707,0.797961,0.501291,0.204699,0.408185,0.411747,0.915387,1.119104,1.422897,1.426768,1.330715,1.434739,1.538839,1.343016,1.047269,1.451598,1.756003,1.360484,1.065040,0.769671,0.874378,1.079159,1.384016,1.188946,1.193951,1.199029,1.304181,1.009406,0.914705,0.720076,0.925519,1.031035,0.936622,0.842281,1.048011,1.253811,1.659682,1.065622,0.871632,0.777711,1.283859,1.590075,1.796359,1.502710,0.909128,0.915613,1.022163,1.328779,1.535460,1.242206,1.449015,1.255888,1.562824,1.469822,1.176882,1.184003,0.991185,0.898427,0.905728,0.513089,0.320507,0.827984,0.835517,0.643107,0.450753,0.458454,0.166210,0.074019,-0.118118,0.189797,0.597763,0.405781,0.013850,-0.478032,-0.669865,-0.361649,0.146613,0.454923,0.563279,-0.128320,-0.319874,-0.011385,0.297148,0.405722,-0.085662,0.022995,0.131692,0.740428,0.349201,0.358013,0.166861,0.275745,0.284663,0.793616,0.602602,0.311621,0.520671,0.529752,0.738862,0.448002,0.557170,0.466365,0.975586,0.784833,0.294104,0.103400,-0.187282,0.022058,0.131418,0.040800,0.150200,-0.040382,0.269054,0.378507,0.387975,-0.002542,-0.193046,-0.283537,-0.174016,0.135516,0.345058,0.654610,0.664169,0.273735,-0.116692,0.192887,0.502469,0.712055,0.321644,-0.168766,-0.059175,0.050416,0.160006,0.169593,0.579178,0.288758,0.098334,-0.392097,-0.182534,0.027021,-0.163432,-0.253895,-0.344369,-0.134854,-0.625351,-0.215862,-0.106386,-0.296926,-0.587482,-0.878055,-1.068646,-0.959255,-1.149884,-1.240534,-1.031205,-0.921898,-0.912615,-0.503356,-0.294122,-0.284913,-0.475731,-0.366577,0.042548,-0.548356,-0.839290,-0.530255,-0.521252,-0.412282,-0.503345,-0.494443,-0.585576,-0.276745,-0.467951,-0.159195,-0.250477,0.258202,-0.033160,-0.224562,-0.616007,-0.307493,-0.499023,-0.590597,-1.082215,-0.773879,-0.665590,-0.957347,-1.449152,-1.241005,-0.932908,-0.624860,-1.016863,-1.408917,-1.601023,-1.493182,-0.885394,-0.577659,-0.669980,-1.062356,-0.654787,-0.447275,-1.139820,-0.932423,-0.725084,-0.517805,-0.610584,-0.903424,-0.996325,-0.489287,-0.782310,-1.375396,-1.368545,-1.661757,-1.055034,-0.648374,-0.541780,-0.635251,-0.628788,-0.622392,-1.016062,-0.809800,-1.003605,-1.497479,-1.091421,-1.385433,-1.779513,-1.573664,-1.567885,-1.062177,-1.256540,-1.250974,-1.545480,-1.740058,-1.634708,-1.229431,-0.724227,-0.719097,-1.014040,-1.009057,-1.304148,-1.299314,-0.994555,-1.389871,-0.985261,-1.180728,-1.176270,-1.371888,-1.267582,-0.463352,-0.359199,-0.655122,-0.551122,-0.647200,-0.343354,-0.139585,-0.035894,0.267720,0.071256,0.074715,-0.121905,0.081398,0.684623,0.687771,0.590840,0.493831,0.896744,0.799579,0.902336,0.505015,0.507616,0.710139,1.012584,1.014950,1.017239,0.719450,0.421583,0.523639,0.725617,1.427517,1.429339,1.031085,0.932753,0.534344,1.135858,1.237295,1.338655,0.739939,0.941147,1.042278,0.743334,0.544313,0.845217,0.946046,0.846799,1.447478,1.148081,0.948611,0.549066,0.249447,0.549754,0.549988,0.350149,-0.049763,0.150253,0.550196,0.950068,0.749868,0.549596,0.249254,0.248841,-0.251642,-0.452195,-0.252817,0.046491,0.245731,0.144902,0.244006,0.043041,0.442010,0.740912,0.539748,0.538518,0.637222,0.235862,0.234437,0.632947,0.831395,0.929779,0.328100,-0.573641,-0.375443,0.222693,0.120769,-0.181216,-0.083260,-0.185363,-0.487525,-0.289746,-0.292023,0.305642,-0.096749,-0.399196,-0.901699,-0.404256,-0.006868,0.190467,0.287749,0.084978,0.282155,0.079281,0.076356,0.473381,0.270357,-0.032716,0.064162,0.360993,0.057777,0.054514,-0.348794,-0.152148,0.144454,-0.358987,-0.662472,-0.766000,-0.969569,-0.873179,-1.076830,-1.380521,-1.284251,-1.688020,-1.691826,-1.395670,-1.299549,-1.603465,-1.307416,-1.211401,-1.115420,-0.919471,-1.123555,-1.027671,-0.831817,-0.835994,-0.440199,-0.544434,-0.248696,-0.052986,-0.057302,0.338356,0.233989,0.429597,0.425182,0.220744,0.316284,0.211803,0.007301,-0.197221,-0.101762,0.093678,0.389101,0.284507,-0.020103,-0.324729,-0.029370,-0.134024,0.161308,0.356628,0.051936,-0.052767,0.142521,0.337798,0.433067,0.528328,0.423582,0.318829,0.014070,0.109307,0.404539,0.799768,0.894994,0.390218,0.585441,0.780664,0.775887,0.771110,0.266336,0.061564,0.356795,0.852030,0.847270,0.742515,0.937767,1.333025,1.128291,1.123566,0.718849,0.914143,0.709446,0.904762,1.100089,1.295428,0.490782,0.386149,0.481531,0.876929,0.872343,0.667773,0.463222,0.858689,1.654174,1.449680,0.545206,0.340753,0.336322,0.631913,0.627527,0.423165,0.218828,0.114516,0.210229,0.305969,0.301736,-0.302470,-0.306647,-0.310795,-0.014913,0.380999,-0.123058,-0.127084,-0.031077,-0.035038,-0.138965,-0.442859,-0.046717,-0.250541,-0.254329,-0.058080,-0.461795,-0.265472,0.030889,-0.472711,-0.776272,-0.579793,-0.383274,-0.186714,-0.190113,-0.693470,-0.396784,-0.600055,-0.303283,-0.506467,-0.609606,-0.912700,-0.815748,-0.518751,-0.921707,-1.224616,-1.027477,-0.830290,-0.633055,-0.935772,-1.038439,-0.841056,-0.743623,-0.746139,-0.748604,-0.951018,-0.453380,-0.555689,-0.357946,-0.760150,-0.562301,-0.664397,-0.866439,-0.768427,-0.970360,-0.672238,-1.074060,-1.375826,-0.977536,-1.079189,-0.580786,-0.982325,-1.383806,-1.085230,-0.386596,-0.087903,0.210848,-0.090342,-0.591473,-0.092545,-0.193557,0.105491,-0.495401,-0.596232,-0.497004,-0.197714,-0.198364,-0.098953,0.600520,0.500053,0.399649,0.099306,0.199024,0.198805,0.098648,0.198553,0.098520,0.398549,-0.001359,-0.201204,0.199013,0.199292,0.099635,0.000040,0.100507,0.201038,0.001632,0.202288,0.303007,0.603789,0.804633,0.605541,0.306511,0.207544,0.408639,0.609797,0.611017,0.712300,0.913645,0.715052,0.616521,0.718052,0.619645,1.021300,0.723016,1.024793,0.926632,0.928532,1.030492,1.432513,1.634594,1.436736,1.538938,1.541199,1.043520,0.945900,0.948339,0.950836,0.953392,1.256007,1.058679,0.961408,0.864195,0.767038,1.369938,1.272894,1.175906,0.878974,0.882096,1.285273,1.688504,1.591790,0.995128,0.798520,0.301964,0.505461,1.109009,1.212608,1.116258,0.419958,1.023709,0.827508,0.831356,0.635253,0.139197,0.043188,0.147227,0.651311,0.855441,0.459616,0.563835,0.068098,0.672404,0.576753,0.381144,-0.014424,-0.209950,-0.305437,-0.600884,-0.596293,-0.391663,0.313004,0.417708,0.622448,0.227224,0.332034,0.836878,0.141756,0.146666,0.551608,0.656581,0.361585,0.366618,-0.028320,0.576769,-0.118114,-0.312970,0.092199,0.397393,0.002611,-0.292147,-0.186884,-0.281598,0.323708,-0.070966,-0.365621,-0.460258,-0.754878,-0.649481,-0.644069,-0.538642,-0.333201,-0.227748,-0.222282,-0.616806,-0.611319,-0.405823,-0.100319,-0.194808,-0.389291,-0.583767,-0.678240,-0.472709,-0.467176,-0.261641,-0.656105,-0.650570,-0.445037,-0.639505,-0.933978,-1.428454,-1.422937,-1.317425,-1.311922,-1.506426,-1.700941,-1.495466,-1.490003,-1.184552,-0.979115,-0.873693,-0.968287,-0.562899,-0.757528,-0.952176,-0.946845,-0.941535,-0.936247,-0.230983,-0.125743,-0.020530,-0.015343,0.089816,0.494946,0.300045,0.305113,0.210149,0.215151,-0.079882,0.025049,-0.170057,-0.065201,-0.360385,-0.255609,-0.550875,-0.546184,-0.341536,0.063065,-0.132379,-0.827872,-0.723413,-0.219004,0.185354,0.089659,-0.306089,-0.501893,-0.197752,-0.093668,-0.789643,-0.685678,-0.381773,0.022069,0.225848,-0.470438,-0.266789,0.136792,0.340305,-0.356251,-0.352878,0.250422,0.353650,0.556803,0.359880,0.262880,0.465801,0.068643,-0.228595,0.174084,0.576679,0.579190,0.581615,0.183953,0.086202,0.288362,0.390430,0.292406,0.094288,0.096075,-0.102234,-0.100640,0.200854,0.102249,0.203542,-0.195268,0.105818,0.206799,0.207672,0.208438,0.409095,0.509641,0.010075,-0.089605,0.210601,0.110691,0.110664,0.410518,-0.089748,0.009865,0.209356,0.008722,-0.192037,-0.392923,0.306064,0.404921,0.603647,0.402242,0.100703,-0.100971,-0.002780,-0.304727,-0.706813,-0.909039,-0.611407,-0.313917,-0.316571,-0.119371,-0.522318,-0.525413,-0.328658,-0.432054,-0.435602,-0.739304,-0.743161,-0.447174,0.148654,0.044324,-0.360168,-0.464821,-0.069637,0.125381,-0.479766,-0.685081,-0.890565,-0.796219,-0.902045,-1.108043,-1.414217,-1.120566,-1.327092,-1.333797,-0.940682,-0.647748,-0.254997,-0.362430,-0.270049,-0.177855,0.314151,0.105967,-0.002408,-0.310975,-0.119737,-0.128694,-0.137848,0.252800,0.343249,0.133496,-0.276459,-0.186618,0.003018,0.292448,0.581669,0.470680,0.559481,0.548070,0.936444,1.024604,0.912547,0.500272,0.987777,1.175062,1.162124,1.248963,0.535576,0.521963,0.808122,0.894052,0.579751,0.165217,-0.549550,-0.764553,-0.379792,-0.095269,-0.010986,-0.526943,-0.243143,0.240413,0.723724,0.706788,-0.110395,-0.727829,-0.545513,-0.163450,0.518359,0.899913,1.081210,0.562249,0.143028,-0.176455,0.203801,0.883792,1.163517,0.842975,0.722165,0.601085,1.179734,1.458110,1.436211,0.714036,0.091585
1,3,-0.144994,-0.045206,0.354569,0.254329,0.254076,0.253808,0.353526,0.053229,-0.247083,0.052591,-0.147750,-0.348106,-0.348477,-0.148864,-0.249266,0.050316,0.149882,0.049433,-0.251033,-0.251515,-0.352013,-0.052527,0.046942,0.446394,0.445830,0.245248,0.644650,0.244034,0.143401,0.042750,0.242082,0.641396,0.140692,-0.060029,-0.160769,0.038473,0.437697,0.436902,0.236088,0.135256,0.134406,0.233536,0.332647,0.631739,0.530812,0.329865,0.328899,-0.072086,-0.273091,-0.574117,-0.475161,-0.276226,0.022689,-0.278417,-0.179542,-0.180688,-0.181855,-0.783042,-0.584249,-0.385478,0.013273,0.212003,0.110712,0.309399,0.108066,0.006711,0.105335,0.003937,0.102518,-0.098922,-0.000385,0.198131,0.296626,0.195098,0.393548,0.791977,0.390384,-0.111232,-0.312870,-0.314530,0.083788,0.382084,0.280357,-0.121392,-0.223164,-0.424958,-0.226774,-0.528613,-0.030475,0.567641,0.665734,0.363805,0.561853,0.359878,0.757880,0.655860,0.153817,0.251752,0.349663,0.247552,0.145418,0.443261,0.441082,0.738880,0.636655,1.334407,0.832137,0.629844,0.627529,0.725190,1.122829,1.120446,0.818040,0.415611,0.713161,0.910687,1.108191,0.505673,0.903133,1.500570,1.497986,1.395379,1.292750,1.090099,1.287427,1.284732,1.082016,0.779278,0.876518,0.773738,0.870935,1.168112,0.765267,0.562401,0.759514,0.856607,0.853678,0.250730,0.047760,0.544770,0.341760,0.038730,-0.464320,-0.767390,0.029520,0.426411,0.123283,-0.379865,-1.083032,-1.486217,-1.089422,-0.292645,-0.395886,-0.599145,-0.702423,-0.705718,-0.409031,-0.312361,-0.415709,-0.419073,-0.522454,-0.725852,-0.529266,-0.732697,-0.836143,-1.439605,-1.543082,-1.146575,-1.050083,-1.553605,-1.457142,-1.260693,-1.164258,-1.067836,-1.671428,-1.875033,-1.578651,-1.382282,-1.485925,-1.489580,-1.493247,-1.596925,-1.500614,-1.304315,-1.108025,-1.411746,-1.715477,-1.719218,-1.722967,-1.226726,-0.730493,-0.534269,-1.038053,-1.141844,-1.045642,-0.749448,-1.053260,-0.757078,-0.860902,-0.964731,-0.968566,-0.472406,-0.276249,-0.580097,-1.183949,-1.387804,-1.091661,-0.495522,-0.099384,-0.303248,-0.407114,-0.310980,-0.314847,-0.618714,-0.722581,-0.526447,-0.230312,-0.034176,-0.338038,-0.541897,-0.745754,-1.049607,-0.853457,-0.957303,-0.661145,-0.964982,-1.168813,-0.872639,-0.476459,-0.380272,-0.484078,-0.887877,-0.891667,-1.195450,-0.299224,-0.502988,-0.506743,-0.710488,-0.814223,-0.617946,-0.521658,-0.425359,-0.529047,-0.232722,-0.036384,0.059967,-0.543667,-1.047287,-0.950892,-0.654482,-0.658056,-0.561613,-0.665154,-0.968678,-1.072184,-0.475672,-0.479142,-0.782593,-0.186024,0.010564,-0.192827,-0.296198,-0.199548,0.097124,0.393818,0.390534,0.187273,0.184035,0.180821,0.477630,0.574465,0.171324,0.268208,0.365118,0.562055,0.659017,0.656007,1.153024,0.950068,0.747141,0.744242,1.141372,1.338532,1.135721,0.732940,0.430189,0.527469,0.624780,0.522123,0.819497,0.416904,0.414343,0.311815,0.409320,0.506859,1.104432,0.802039,1.099680,0.697357,0.595068,1.092815,1.290598,1.388417,0.886272,0.884164,0.782093,0.680059,0.178062,0.376104,0.774183,0.472301,0.570457,0.768652,0.966886,0.765159,0.663472,0.861825,1.160217,1.358650,0.857123,0.855636,0.854191,1.052786,0.951423,0.850100,1.048820,0.947581,0.746383,1.045228,0.844115,1.143044,0.742016,0.641030,1.040086,1.639186,1.638328,1.137513,0.836742,1.036013,1.235328,1.034686,0.834087,0.433532,0.733021,0.932553,0.832128,0.731747,0.531410,0.331117,0.530867,0.730661,1.030499,0.930380,0.830305,1.030274,0.930286,1.230343,1.930442,1.630586,1.830773,1.431003,1.231277,1.031594,1.331954,1.032357,0.532804,0.233294,0.333826,0.434401,0.435019,0.335680,0.436383,0.437128,0.337915,0.138745,0.239616,-0.259471,-0.558517,-0.857521,-0.856484,-0.355406,-0.354287,-0.753128,-0.751928,-0.550688,-0.949407,-1.348088,-1.446728,-1.145329,-0.943892,-0.442415,-0.840900,-1.239346,-1.137754,-1.436125,-1.334458,-1.332753,-1.331012,-1.229234,-1.127419,-1.425569,-1.223682,-1.021760,-0.419803,-0.417811,-0.615785,-0.813724,-0.911629,-0.809501,-0.407340,-0.405146,-0.002919,0.299340,-0.098369,-0.096047,-0.293694,0.108690,0.511104,1.013548,1.116021,1.118524,0.521055,0.423615,0.826202,1.128817,0.931459,0.334128,0.136823,0.839544,0.642290,0.745061,0.847857,0.550677,0.553520,1.056386,1.259276,1.262187,1.165121,0.768075,1.171051,1.074047,1.077063,0.880098,0.783153,0.786225,0.489316,0.492425,0.495550,0.798693,0.501851,0.205025,0.008214,0.011417,-0.185365,-0.482134,-0.878890,-0.775633,-0.672364,-0.769084,-0.665793,-0.562491,-0.559179,-0.655857,-0.852527,-0.849188,-0.945842,-1.342488,-1.639127,-1.335759,-0.832386,-0.529008,-0.525625,-1.022238,-1.818847,-1.715452,-1.212056,-1.308657,-1.405257,-1.601855,-1.298453,-1.195052,-1.291651,-1.288251,-1.284852,-1.081456,-0.278063,-0.674673,-1.071287,-1.067905,-1.064528,-1.261157,-1.057791,-0.954432,-1.051080,-0.947736,-0.544400,-0.341073,-0.637754,-1.334446,-1.031148,-0.827860,-0.624584,-0.721320,-0.318068,0.285171,0.888396,0.391608,0.294805,0.497986,0.801153,1.304303,1.007437,0.910553,0.213652,0.516733,0.519795,0.622838,0.325861,1.028864,1.031847,1.134808,1.237747,1.140664,1.043559,0.946430,0.849278,0.852101,1.454900,1.057673,0.860421,0.463143,0.465838,0.668506,1.071147,1.073759,0.876343,0.978898,1.081423,0.783919,0.286384,0.088819,0.091222,0.393594,0.495933,0.498240,0.300513,0.102754,0.504960,0.907132,1.109269,1.011371,0.713438,0.715468,0.817463,1.019420,0.821340,0.923222,0.725067,0.526873,0.728640,1.130368,1.032057,0.533706,0.835314,1.036882,0.538409,-0.060106,-0.258662,-0.457261,0.044099,0.045415,0.246689,0.047919,0.149105,0.450247,0.251345,-0.047601,-0.146593,-0.145630,-0.344712,-0.543840,-0.343015,-0.142236,-0.441503,-0.340817,-0.040179,-0.039588,0.360956,-0.138549,-0.438102,-0.237703,-0.237353,-0.537051,-0.136799,0.063404,0.063557,0.063661,-0.536285,-0.736281,-0.936327,-0.636424,-0.436571,-1.036770,-0.937019,-0.637319,-0.737670,-1.038073,-0.938527,-0.839033,-0.639590,-0.740200,-1.140861,-1.441574,-1.042340,-0.843157,-1.244027,-1.044950,-0.945925,-1.046952,-1.148032,-1.049165,-0.950350,-1.151589,-0.852880,-0.654223,-0.455620,-0.057069,-0.358571,-0.560126,-0.561734,-0.363395,-0.165108,-0.166875,-0.768694,-1.270565,-1.372490,-1.474467,-1.076496,-1.078578,-0.980713,-0.882900,-0.585139,-0.687430,-0.889774,-0.892169,-0.794616,-0.697116,-0.699666,-0.702269,-0.404922,-0.507628,-0.610384,-0.613191,-0.516049,-0.318958,-0.821917,-0.724926,-0.727986,-0.631096,-0.734255,-0.737464,-0.540722,0.155970,0.452613,0.449208,-0.054246,-0.157748,0.338702,0.235104,0.431458,0.527765,0.124025,-0.079762,0.216405,0.512525,0.408599,-0.095372,-0.199389,-0.403451,-0.407558,-0.111710,-0.015905,0.279855,0.475572,0.371246,0.366876,0.262464,0.458010,0.753513,1.148975,1.044396,0.939776,0.535115,0.430414,0.125674,-0.379107,-0.283926,-0.288784,0.106320,-0.098614,-0.503586,-0.408595,-0.113641,0.181277,-0.123841,-0.028995,0.065816,-0.139408,-0.244666,-0.149957,0.344717,0.139359,-0.066032,0.128545,0.223090,0.017604,0.112087,-0.193461,-0.399039,-0.704646,-0.610282,-0.615947,-0.521640,-0.327360,-0.133108,-0.238883,-0.244684,-0.550511,-0.556363,-0.662241,-0.468142,-0.874068,-0.580017,-0.385989,-0.391984,-0.098001,-0.304039,0.289901,0.183821,0.077721,0.071601,0.465462,1.159305,0.753129,0.846936,0.040725,0.034498,0.228254,0.421995,0.315721,0.509432,0.603129,0.696812,0.490482,-0.015861,-0.522216,-0.528583,-0.334960,-0.241349,-0.347748,-0.354156,-0.360574,-0.267000,-0.273435,-0.179877,-0.286327,-0.492783,-0.599245,-0.405714,-0.012187,0.181335,0.074852,-0.131634,-0.038123,0.155385,0.248890,1.042394,1.235897,1.029398,1.022900,0.916401,0.809904,0.903407,0.496912,0.390419,0.483929,0.477442,0.270958,0.364478,0.358003,0.051533,0.145068,0.238609,0.232156,0.325710,0.619272,0.512841,0.106418,-0.099996,-0.206401,-0.112796,-0.119181,0.174444,0.168080,0.361727,0.655386,0.749058,1.342742,1.336439,1.030150,0.823874,1.217613,1.611367,1.805136,1.598921,1.492722,0.986539,0.880373,1.274225,1.268094,1.161981,1.155887,1.149812,0.943756,1.137719,1.531703,1.225707,0.719733,0.713779,0.907847,1.101937,0.996050,0.590185,0.484343,1.078525,1.472731,1.766961,1.461216,1.155495,1.149800,0.944130,1.038487,0.732869,0.027279,0.221715,-0.083821,0.010670,0.105190,0.199738,0.294314,0.688920,0.783555,0.578219,-0.027087,-0.132362,0.162393,0.157179,0.051997,-0.053155,-0.258274,-0.263362,-0.168417,-0.673439,-0.478428,-0.283385,-0.088307,-0.093196,-0.898051,-0.902872,-0.907658,-0.412409,-0.717124,-0.621805,-0.126450,-0.031058,-0.035631,-0.340167,-0.744667,-0.449129,-0.753554,-1.057942,-1.262292,-1.366604,-0.870878,-0.675114,-0.579311,-0.683469,-0.587588,-0.491668,-1.195708,-1.399708,-1.203668,-0.607589,-0.411468,-0.515307,-1.019105,-1.022863,-1.126578,-0.630253,-0.433886,-0.237476,-0.641025,-0.944532,-0.847996,-0.651417,-0.654796,-0.458131,-0.361423,-0.764672,-0.667877,-0.571039,-0.674157,-0.477230,-0.680259,-0.983244,-0.886184,-0.789080,-1.091930,-0.994735,-0.897495,-0.800210,-1.002879,-1.305502,-0.808080,-0.810611,-0.613096,-0.715535,-0.717927,-0.520273,-0.822572,-0.324824,-0.527029,-0.729186,-0.631297,-0.333360,-0.235375,0.062657,0.360737,0.658865,0.857041,0.755265,0.853538,0.951859,0.850228,0.748646,0.547113,0.545628,0.244193,0.542807,0.841469,1.040182,1.238943,0.837754,1.036614,1.335524,1.034484,0.833493,1.132552,0.831662,1.430821,1.630030,0.929290,0.928600,1.027960,1.227371,1.026832,0.826344,0.525906,0.225519,0.525183,0.524897,0.624662,0.124478,-0.075655,-0.175736,0.124233,-0.175747,-0.175676,-0.275553,0.124620,0.124845,-0.174878,-0.374551,-0.174172,0.026258,0.226740,0.227273,-0.172143,-0.771507,-0.670819,-0.670080,-1.369290,-1.368448,-1.367555,-0.966610,-0.765613,-1.164565,-1.263466,-1.162315,-1.261112,-1.059858,-0.658552,-0.357195,0.044214,-0.254326,-0.252814,0.248749,0.350363,0.252029,-0.346254,-0.344485,-0.442665,0.059206,-0.338871,-0.536898,-0.734873,-0.332797,-0.430670,-0.828492,-1.126263,-0.823983,-0.121652,0.280730,-0.316838,-0.914355,-0.711821,-0.609237,-1.006602,-1.003917,-0.601181,-0.698395,-0.295559,-0.492673,-0.389737,-0.586751,-0.583715,-0.980629,-1.377494,-0.974309,-0.871074,-0.867791,-0.664458,-0.561075,-0.957644,-0.954164,-0.750635,-0.047057,-0.043431,-0.339756,-0.536033,-0.632262,-0.428443,-0.324576,-0.520661,0.183302,0.187312,-0.108631,-0.204526,-0.000375,0.603824,0.308069,0.212361,-0.083301,0.721083,1.325514,0.929990,0.634512,0.339080,0.743692,1.448350,1.053053,1.257801,1.262593,1.267430,1.372311,1.377236,0.582204,0.587216,0.792272,0.997370,0.802512,0.707696,0.412922,0.718191,0.523502,0.828854,0.834248,0.939683,0.745160,0.650677,0.556234,0.361832,0.867469,0.873147,0.978864,0.884620,0.690414,0.396248,0.502120,0.708030,0.913978,0.919963,1.325986,1.332045,1.438141,1.344274,0.750442,0.356646,0.362886,0.569160,0.875470,0.581814,0.788192,0.394603,-0.098951,-0.392473,-0.285962,0.020582,0.727158,0.833766,0.240405,-0.152925,0.153776,0.260508,-0.032731,0.074061,0.280881,0.087731,-0.205391,-0.198485,-0.391551,-0.184589,-0.177600,-0.370585,-0.263543,0.143525,0.450618,0.557737,0.064880,-0.227952,0.179240,0.086455,0.293693,0.100955,0.008238,-0.284456,-0.777129,-0.469780,-0.662411,-0.955022,-0.547613,-0.240184,0.167264,0.374730,-0.117785,-0.310283,-0.402763,0.104774,0.112327,-0.680104,-0.772520,-0.364920,0.242695,0.150323,-0.142034,0.065622,-0.026709,-0.119028,-0.311335,-0.103630,0.004086,-0.188188,-0.880451,-1.372705,-1.164949,-0.657184,-0.449412,-0.441631,-0.633843,-0.326048,0.081753,0.289561,0.197373,0.105191,0.013014,0.720840,0.528671,0.236504,0.044340,0.152178,0.460018,0.767859,0.675701,0.383543,0.391384,0.799225,1.507065,1.114904,0.522740,0.030573,-0.061597,0.146230,-0.045948,-0.238130,0.269683,-0.022510,0.185291,0.193086,0.500873,0.008653,0.216425,0.224189,0.331943,0.439688,0.247423,0.055147,-0.137139,-0.229437,-0.121747,-0.114070,-0.306405,-0.198754,-0.591117,-0.683494,-0.975886,-1.168294,-1.160717,-0.953157,-0.845614,-1.138088,-0.930580,-0.923090,-1.215619,-1.208167,-1.600736,-1.393324,-0.985934,-0.978564,-0.671216,-0.563891,-0.356588,-0.749309,-1.142053,-1.434822,-1.427615,-1.320433,-0.713277,-0.806147,-1.199044,-1.091967,-1.184919,-1.077898,-1.070906,-0.763942,-0.857009,-0.750105,-0.743231,-0.836389,-0.729578,-0.522798,-0.616051,-0.509337,-0.702656,0.003991,0.110605,-0.282817,-0.176274,0.030234,0.336706,0.643141,0.949540,0.755901,0.762224,0.968508,0.874754,0.580961,0.787128,0.693255,0.899341,0.905386,0.911389,0.917351,0.723270,1.029147,0.734980,0.440769,0.146514,0.352215,0.757870,0.563480,0.469044,0.774562,0.780033,0.785456,1.090832,0.996160,0.601439,0.606669,0.811850,0.716981,0.422062,0.127092,-0.167929,0.136998,0.141874,0.246697,0.551468,0.756185,0.660849,0.065458,-0.129986,0.274514,0.278960,0.083349,-0.112317,-0.108040,-0.203819,-0.099656,0.304450,0.608497,0.512487,0.316417,-0.179711,-0.075900,0.127852,0.031544,-0.564825,-0.861255,-0.657747,-0.054300,0.649084,0.152406,-0.244335,-0.141140,-0.238008,0.365060,0.068064,0.171003,0.473877,0.276685,0.079428,0.282104,0.184714,0.287257,0.389734,-0.007858,0.394483,0.196756,0.198960,0.101095,0.103161,0.705158,0.007085,0.008942,-0.189272,0.412444,0.514089,0.515662,0.617164,0.818594,1.119951,0.921236,0.522448,0.623587,1.124653,0.825645,0.226563,0.427407,0.528176,0.628871,0.529490,0.330034,0.430502,0.030895,0.231211,0.431451,0.531615,0.431702,0.231711,0.231643,0.131498,0.431274,0.230973,0.330594,0.130135,-0.070401,-0.871017,-0.771712,-0.772486,-0.873340,-0.874274,-0.875287,-0.476381,-0.277555,-0.678810,-1.080145,-1.381562,-1.483059,-0.984638,-0.486298,-0.588040,-0.689863,-0.091769,-0.593756,-0.695826,-0.597978,-0.100213,-0.102530,-0.004930,-0.407414,-0.509980,-0.112629,-0.315362,-0.218178,-0.521077,-0.524060,-0.427127,-0.430278,-0.433513,-0.836832,-0.540234,-0.343721,0.052707,0.049052,-0.654688,-1.058513,-0.862422,-0.466416,-0.370494,-0.174657,-0.078905,-0.383237,-0.587655,-0.792157,-0.796744,-0.301416,-0.406173,-0.511015,-0.715942,-0.620954,-0.326050,-0.131232,0.163501,0.058150,-0.247287,-0.152808,0.041586,-0.164105,-0.369881,-0.175742,-0.181687,-0.087717,-0.393832,-0.200031,-0.006315,0.187317,0.380864,0.374328,0.467706,0.461001,0.354212,0.247339,-0.059618,0.033341,-0.373783,-0.380991,-0.288283,0.304343,0.396885,0.289344,0.881720,0.674013,0.466224,0.058352,-0.149602,0.142362,0.234243,0.226043,-0.182239,-0.390602,-0.199047,-0.207573,0.083820,0.375133,0.866364,0.357516,0.548587,0.439578,0.230490,0.521321,0.312074,0.602748,0.193342,0.083858,-0.125704,0.264655,0.454937,0.245141,0.135268,0.225317
1,3,-0.024019,0.278841,-0.018310,-0.615474,-0.012651,0.090160,0.292958,0.095743,0.198514,0.201271,-0.095985,-0.493255,-0.490540,0.212160,0.714846,0.017517,-0.579828,-0.677188,-0.974563,-0.771955,-0.469363,-0.566787,-0.664228,-0.661685,-0.559159,-0.556651,-0.854160,-1.551686,-1.449230,-0.946792,-0.844373,-1.241971,-1.439588,-1.137224,-0.934879,-0.832552,-1.030245,-1.027958,-1.025690,-0.923441,-0.721213,-0.719005,-0.916817,-0.614649,-0.712502,-1.210375,-1.108270,-0.606185,-0.404122,-0.602080,-0.600059,-0.698060,-0.896083,-1.094127,-0.892194,-0.790282,-0.588393,-0.586526,-0.384681,-0.682860,-1.081060,-0.979284,-0.677530,-0.475800,-0.674092,-0.872408,-0.870747,-0.769109,-0.667495,-0.565904,-0.864337,-0.662794,-0.561274,-0.659778,-0.458307,-0.756859,-1.055435,-0.754036,-0.352660,0.148691,0.150018,0.151320,-0.347401,-0.446148,-0.544919,-0.043714,0.157466,0.658622,0.859753,0.660859,0.061941,0.162998,0.364030,0.265037,0.366020,0.766978,0.867911,0.368820,0.469703,0.670562,1.071396,0.872206,0.672990,0.373750,0.474485,0.775196,0.975881,0.676542,0.277178,0.277790,0.778377,1.178939,1.279477,0.679991,0.280480,0.280944,0.281384,0.481800,0.282191,0.482558,0.382901,0.283220,0.383514,0.683785,0.584032,0.684254,0.684453,0.384628,0.284780,0.684907,0.685012,0.585092,0.385150,0.485183,0.485194,0.285182,-0.114854,-0.114912,0.285006,0.584902,0.184775,0.284626,0.084454,-0.215741,-0.115958,-0.716196,-0.416458,-0.616741,-0.817045,-0.617372,-0.317720,-0.218090,0.081519,-0.318894,-0.319327,0.180218,0.179742,-0.020754,-0.421271,-0.021809,0.077633,-0.022945,-0.123544,-0.124162,0.075200,0.074542,0.273864,0.073167,0.072451,-0.328284,-0.229039,0.070188,0.069396,0.268586,-0.032243,-0.333090,-0.233955,-0.234838,-0.235739,-0.436657,-0.537593,-0.838546,-0.939517,-0.940504,-0.741508,-0.442528,-0.543565,-0.944618,-0.645687,-0.546773,-0.147874,-0.048990,-0.150122,-0.251269,-0.752431,-1.153608,-1.054800,-0.456006,-0.157227,-0.058461,-0.659710,-0.560972,-0.162248,0.136463,-0.064840,-0.366155,-0.167484,0.031175,0.129822,-0.671544,-0.672922,-0.274311,0.424288,0.422875,0.221451,0.220016,0.318570,0.117113,-0.084354,0.114169,0.312681,0.411184,0.509677,0.508160,0.806634,0.805099,0.803555,1.302003,1.400442,0.898872,0.597295,0.595710,0.594117,0.892517,0.890909,0.289294,0.587673,0.486045,0.984410,1.182770,1.081123,0.879470,1.277812,1.276149,1.074480,1.372807,1.371129,1.069446,1.267759,1.266067,1.664372,1.762674,1.360971,1.159266,1.057557,1.155846,1.254132,1.152415,0.550697,0.048976,-0.052746,0.345530,0.743805,0.742079,0.840352,0.638624,0.336896,0.635167,0.733439,0.431710,0.229982,0.228255,0.226529,0.324803,0.323079,-0.178643,-0.180364,-0.282083,-0.283799,-0.385514,-0.487225,-0.788934,-0.890640,-0.892342,-1.194041,-0.795736,-0.397427,-0.499114,-0.100797,-0.802475,-0.904148,-0.705816,-0.707479,-0.509136,-0.510788,-0.512433,-0.314073,-0.215705,-0.517331,-0.418951,-0.220563,-0.522168,-0.523765,-0.625354,-0.326935,-0.328508,-0.230073,-0.731629,-0.233176,-0.134713,-0.436241,-0.237760,-0.339268,-0.240767,-0.042255,-0.343732,-0.545199,-0.346655,-0.348099,-0.749532,-0.850953,-0.752362,-0.753758,-0.655142,-1.056514,-1.057872,-1.159218,-1.260550,-1.161868,-1.063172,-0.864462,-0.765738,-0.766999,-0.568246,-0.769477,-1.270693,-1.271893,-0.873077,-0.974246,-1.375398,-0.876534,-0.577653,-0.478754,-0.379839,-0.680906,-0.781956,-0.682987,-0.484000,-0.984995,-0.385971,-0.786929,-0.087867,-0.488786,-0.089685,-0.090564,0.108577,0.407738,0.306919,0.406122,0.705345,0.604590,0.703856,0.803144,0.802454,0.601786,0.201141,0.300518,0.399918,0.399341,0.398788,0.298258,-0.002248,-0.202730,0.296812,0.396379,0.295970,0.795586,0.595228,0.494894,0.794587,0.894305,0.994049,0.393819,0.093616,0.093440,0.593290,0.293168,0.193073,0.193005,0.292965,0.592953,0.592969,0.493014,0.293087,0.293189,0.193319,0.693479,0.493669,-0.006112,0.394136,0.694415,0.594723,0.195062,0.195432,0.095832,-0.103737,-0.203275,-0.502781,-0.102257,-0.201700,0.098888,-0.200492,-0.299839,-0.799155,-0.998438,-0.897688,-0.696906,-0.496090,-0.295242,-0.294360,-0.893445,-1.292496,-0.791513,-0.390497,0.010554,-0.088361,0.012758,-0.186089,-0.384901,-0.683678,-0.582420,-0.481128,-0.279800,-0.178437,-0.577039,-0.675605,-0.974135,-0.872630,-0.371089,-0.269512,-0.167899,-0.366250,-0.664565,-0.462843,-0.161085,0.040710,-0.057459,-0.455591,-0.453686,-0.551744,-0.349766,-0.047750,0.054303,0.256392,0.058520,-0.139316,0.462886,0.765125,0.967401,0.769715,0.472067,0.174456,0.176882,0.179347,-0.118151,0.084389,0.086966,-0.210419,0.092234,0.194925,0.597653,0.200419,0.003224,-0.193935,0.408945,0.611862,0.414818,0.417810,0.620841,0.323909,0.427015,0.030159,0.033340,-0.263441,-0.360185,-0.456891,-0.253560,-0.250191,-0.446785,-0.543342,-0.439862,-0.236345,-0.232790,-0.229199,-0.525570,-0.021905,0.181796,-0.014465,-0.210691,-0.606879,-0.603032,-0.199148,0.004772,0.108727,-0.087281,0.116746,0.320809,0.224907,0.429040,0.533209,0.437412,0.441651,0.045924,0.150232,0.554573,0.258950,0.263360,0.667804,1.272281,1.476793,0.981337,0.885914,0.490525,0.595168,0.999843,1.204551,1.109291,0.814063,0.818866,1.123701,1.228567,1.033463,0.838391,0.943349,1.248337,1.553355,1.358403,0.963480,0.968587,0.873722,1.178886,1.284078,1.789299,1.694547,1.499823,1.605126,1.910456,2.215812,1.621195,1.226604,1.132039,0.737499,0.442985,0.448495,0.654029,0.759588,0.665171,0.670777,0.576407,-0.417941,-0.712267,-0.306570,-0.300851,-0.195111,-0.389350,-0.083568,-0.177765,-0.171943,-0.666101,-0.760239,-1.154359,-1.048460,-0.842543,-0.836608,-1.130655,-1.224686,-1.218700,-1.112697,-0.906679,-1.000645,-1.094597,-0.788533,-0.282455,-0.176364,-0.170258,-0.764140,-0.458009,-0.451866,-0.345711,-0.639545,-1.033367,-1.127179,-0.420981,-0.314773,-1.108556,-1.402330,-1.296095,-1.489852,-1.683602,-1.677345,-1.271081,-1.164810,-0.958534,-0.952252,-1.145966,-1.039675,-1.033380,-1.027081,-1.120779,-0.714474,-0.708167,-0.701858,-0.995548,-0.689236,-0.582925,-0.676613,-0.270302,0.336009,0.542318,-0.051375,-0.345070,-0.238768,-0.032468,0.273827,-0.119882,-0.713595,-0.207313,0.098963,-0.094766,-0.088502,0.117755,0.324005,0.130246,0.136480,0.342705,1.148921,1.355127,0.961323,0.467508,0.673683,0.979845,0.785996,0.792135,0.598260,0.604372,0.010471,0.016555,0.622624,1.128678,0.934716,0.240738,0.746744,0.552733,0.458704,0.064657,0.170591,0.276507,0.482403,0.288280,0.594136,0.499972,0.305787,0.211580,-0.082649,0.223099,0.828824,0.734527,0.440205,0.445859,0.751488,0.957092,0.762671,0.668224,0.573750,0.379249,0.284721,0.290165,0.295581,0.200969,0.006328,0.011657,0.416956,0.622225,0.527463,0.432671,0.337847,0.642991,0.548102,0.453181,0.658227,0.463240,0.368218,0.673163,0.878072,1.082947,1.487786,1.292590,1.097357,0.902088,0.706782,0.911438,1.016057,1.320638,1.825181,1.629685,1.134150,0.638576,0.342961,0.447307,0.551613,0.555877,0.960101,1.264283,0.768424,0.272522,0.476579,0.480592,0.584563,0.188490,-0.107626,-0.303785,0.100011,0.203763,0.007470,-0.388868,-0.085251,-0.281680,-0.578154,-1.074674,-0.971240,-1.067853,-1.064512,-1.161218,-1.257972,-0.954773,-0.851621,-1.148517,-1.045462,-1.042454,-0.939495,-0.836585,-0.933723,-1.130910,-1.028147,-1.025432,-1.022768,-0.820152,-0.717587,-1.315072,-1.112607,-0.510192,-0.507827,-0.905513,-1.303250,-1.001037,-1.298876,-1.196765,-1.094705,-1.192697,-0.990739,-0.788833,-1.086979,-1.085176,-1.383425,-1.281725,-0.980077,-0.978480,-0.776936,-0.575443,-0.574002,-0.572613,-0.471276,-0.369991,-0.168757,-0.267576,-0.666447,-0.765369,-0.564343,-0.463370,-0.462448,-0.561578,-0.560759,-0.959993,-1.059278,-1.158615,-0.758003,-0.257443,-0.456934,-0.656477,-0.856070,-0.855716,-0.855412,-0.655159,-0.554957,-0.354806,-0.354705,-0.254656,-0.354656,-0.154707,-0.254808,-0.454959,-0.655159,-0.355410,-0.155710,-0.156059,-0.456458,-0.256905,-0.457402,-0.557947,-0.558541,-0.559182,-0.259872,-0.460610,-0.261396,-0.462228,-0.663108,-0.664036,-0.365009,-0.066030,0.132904,0.131791,-0.469368,-0.770572,-0.471821,-0.173115,-0.474454,-0.575838,-0.777265,-0.978737,-1.080252,-1.081811,-0.583413,-0.585057,-0.686744,-0.788473,-0.390244,-0.192057,0.106090,-0.295805,-0.497740,-0.299715,0.198270,0.696215,0.694121,0.391988,0.589816,0.587606,0.585359,0.683074,1.280752,1.578393,1.375997,1.173566,1.471099,1.768596,1.366059,1.163487,1.260881,0.858241,1.055568,1.052862,1.150123,0.947352,0.844549,0.641715,0.338850,0.835954,1.233028,1.230072,0.927086,0.824072,1.021029,0.617958,0.514859,0.311733,0.508580,0.605401,0.602195,0.898964,0.895708,0.892427,1.189122,0.485792,0.382439,0.079064,0.175665,-0.127755,-0.031198,0.365339,0.461854,0.858349,0.554825,0.651280,1.347717,0.944135,0.540535,0.136917,0.133282,0.529629,0.625961,0.522276,0.518577,0.214862,0.111132,-0.092612,-0.596369,-0.500140,-1.003923,-1.107719,-0.911527,-1.015346,-1.119176,-1.223017,-1.426868,-1.030728,-0.434598,-0.438476,-0.142363,-0.146257,-0.350159,-0.054067,0.042017,-0.161904,0.134169,-0.069763,0.026301,0.122360,0.018415,0.614467,0.910516,0.406563,0.202607,0.198650,0.594692,0.890734,0.386775,0.582816,0.578858,0.974901,1.170945,1.366992,1.163041,1.059092,0.855147,0.751206,0.747269,0.343336,0.439408,0.935486,1.131569,1.027659,0.023755,-0.080141,-0.084030,0.212089,0.308216,0.404353,0.400498,0.296653,0.392818,0.688993,0.285179,0.181377,0.077586,0.073807,-0.429960,-0.933714,-0.937454,-0.741181,-0.544894,-0.648592,-0.952276,-0.255944,-0.159597,-0.463234,-0.466855,-0.770458,-1.374045,-1.177615,-0.981166,-0.884699,-0.488214,-0.391710,-0.595187,-0.598644,-0.702080,-1.005497,-0.908893,-1.212268,-0.315621,-0.218953,-0.322262,-0.125549,-0.328814,-0.532055,-0.135273,-0.138467,-0.041636,-0.544782,-0.447903,-0.250998,-0.154069,-0.157113,-0.260132,-0.263124,-0.566090,-0.569029,-0.471941,0.125175,-0.377681,-0.880509,-1.183309,-1.286081,-0.688823,-0.791536,-0.794220,-0.796874,-0.399498,-0.102092,0.295345,0.292812,-0.109689,-0.412160,-0.114598,-0.117006,-0.319381,-0.321723,-0.224034,0.373688,0.471444,0.169232,0.067053,0.264909,0.062797,0.060720,0.158677,-0.243332,-0.245306,-0.747245,-0.549150,-0.351020,0.147146,0.445347,0.443584,0.241856,0.340165,0.438509,0.436890,0.235307,0.133760,0.132250,-0.069223,0.329341,0.427942,0.426579,0.625255,0.523967,0.522717,0.621504,0.420330,0.419193,0.718093,0.517032,0.316009,0.315023,0.414076,0.713167,0.612297,0.311464,0.310671,0.309915,0.509198,0.508519,0.807879,1.007278,1.006715,0.806191,0.605705,0.605258,0.704850,0.804480,0.204148,0.403856,0.203602,0.503386,0.703209,0.803071,0.302971,-0.397091,-0.697114,-0.497099,-0.397046,-0.296954,-0.396825,-0.296657,-0.296451,-0.496208,-0.595927,-0.795608,-0.995251,-0.594857,-0.494425,-0.193956,0.106550,0.307093,0.107673,-0.091710,-0.491057,-0.290367,-0.189640,-0.488878,-0.488079,-0.187245,-0.286374,-0.485469,-0.884528,-0.383551,-0.682540,-0.681494,-0.380414,-0.579299,-0.578149,-0.776966,-0.775749,-0.574499,-0.673215,-0.471899,-0.970549,-0.669167,-0.567753,-0.066306,-0.164828,-0.363318,-0.161777,0.039795,0.241398,0.043031,-0.255306,-0.453613,-0.251890,-0.150139,-0.048358,-0.346549,-0.344711,0.057154,0.059047,-0.039032,0.062915,0.364889,0.166889,0.268915,-0.129033,-0.026957,-0.224855,0.077271,-0.420579,-0.518406,-0.616209,-0.813989,-0.611747,-0.209483,-0.907197,-0.504890,-0.902562,-0.700213,-0.497845,-0.495457,-0.793050,-0.690624,-0.588180,-0.685719,-0.483240,0.119256,-0.078231,-0.175703,0.126841,0.329400,0.531973,0.234560,0.337161,0.139775,0.342402,0.745041,1.147691,1.550352,1.353024,1.055706,0.758397,0.461098,0.763807,0.866524,0.969248,0.671979,0.574717,0.577460,0.880209,1.082963,1.285720,0.888481,0.891246,0.694012,0.996781,0.899551,1.102322,1.005093,1.107864,1.410634,0.813402,0.816168,0.918932,1.021692,1.424448,0.727200,1.029947,1.132688,0.835424,0.438152,0.740873,0.943585,1.046289,1.948984,1.951669,1.554344,1.257007,0.859659,0.862298,0.664925,0.567538,0.370137,0.472721,0.875290,0.777842,1.080378,1.082897,1.185398,0.887881,0.290344,0.592788,1.095211,1.297613,1.199994,0.902353,0.404688,0.207001,0.909289,0.711553,0.613791,0.316004,0.218190,0.520349,0.822480,0.624583,0.426656,0.428701,0.330715,0.732699,0.934651,1.236571,0.538459,-0.159687,-0.257866,-0.256079,-0.154328,-0.252611,0.049069,-0.249288,-0.447681,-0.246113,0.155418,-0.243091,-0.241639,-0.240227,-0.038855,0.162475,0.163764,0.265011,-0.133785,-0.832624,-0.831507,-0.730434,-0.429406,-0.928423,-1.427486,-1.026595,-0.525751,-0.024954,-0.024205,-0.223504,-0.522851,-0.622248,-0.221694,-0.421190,-0.120737,0.179665,-0.019984,-0.519684,-0.819437,-0.619243,-0.219101,-0.419013,-0.618978,-0.318998,-0.419072,-0.419201,-0.619385,-0.219625,-0.219920,-0.320272,-0.420681,-0.521146,-0.421668,-0.722248,-1.222886,-0.623582,-0.824336,-1.325148,-1.526020,-1.526950,-1.227940,-0.828990,-0.530099,-0.731268,-0.632497,-0.933787,-1.235137,-1.136548,-0.638019,-0.939552,-1.241146,-1.142801,-1.044517,-1.046295,-1.648135,-1.050036,-0.751999,-0.754024,-0.956110,-0.658259,-0.760469,-1.062741,-1.165076,-1.067472,-0.569930,-0.172450,-0.075032,-0.277676,-0.380381,-0.883148,-0.685977,-0.788867,-0.391819,-0.194832,-0.197906,-0.101041,0.395763,0.292507,0.489190,-0.014187,-0.217625,-0.221122,-0.324679,-0.228295,0.068030,0.164296,0.060503,0.156652,0.252743,0.148776,0.444752,0.740671,0.636534,0.732340,0.728091,0.523786,0.719426,0.515011,0.510543,0.306020,0.001445,-0.203184,-0.207864,-0.412597,-0.717380,-0.722214,-0.927099,-0.632033,-0.237016,-0.242047,-0.347126,-0.352252,-0.557425,-0.962644,-0.767907,-0.673216,-0.778568,-1.183964,-0.689401,-0.394881,-0.900402,-1.305962,-1.311563,-1.217201,-1.222878,-1.028592,-0.934341,-0.140127,0.254054,-0.151799,-0.657685,-0.763603,-0.769552,-0.875530,-1.081538,-0.787574,-0.193637,-0.499725,-0.705839,-0.411977,-0.118138,0.275679,0.469475,0.263251,0.057009,-0.149251,-0.355528,-0.061820,0.331874,0.525554,0.419223,0.212881,0.406530,1.000170,1.093804,0.787431,0.981054,1.174674,1.068292,1.061909,1.155527,1.549147,1.542771,1.336399,0.830034,0.823676,0.917327,0.810988,0.704662,0.898348,0.692050,0.285767,-0.120497,-0.226743,-0.132967,0.160831,0.354653,0.248500,0.242375,0.036278,-0.269789,-0.175823,-0.281824,0.012210,0.006282,-0.199608,-0.405458,0.288734,0.482971,0.677252,0.771582,0.365960,0.260389,0.154871,0.049407,0.344000,0.338651,0.133363,0.028136,0.122973,0.517876,0.512847,0.607887,0.302999,0.198185,0.193446,0.388785,0.084204,-0.020296,0.075288,0.070958,0.166715,0.362563,0.258503,-0.045464,-0.049334,-0.353105,0.043224,-0.060344,0.336193,0.032837,0.029591
1,3,-0.595100,-0.805970,-0.316850,-0.827739,-0.438636,-0.249540,-0.260450,0.028634,-0.082286,0.006790,0.095863,-0.315066,-0.225996,-0.036926,-0.047856,0.041216,-0.269710,-0.380633,-0.191551,-0.202465,0.386627,0.275725,0.264832,0.153946,0.143070,0.232204,-0.378651,-0.289494,0.399676,0.588860,0.878058,0.567272,0.656502,0.845750,0.935015,0.924300,1.013605,1.102930,0.592277,0.381647,0.471040,0.660457,1.249900,0.939369,0.128865,0.018388,0.507941,0.697523,0.287135,-0.523221,-0.333545,0.356164,0.445907,0.135685,-0.174501,-0.784651,-0.694764,-0.504838,-0.514873,-0.324869,-0.534823,-0.644736,-0.254606,-0.064434,0.325783,0.216045,-0.093647,-0.803293,-0.912892,-1.322442,-1.431944,-0.841395,-0.150796,-0.360146,-0.569443,-0.478688,-0.187879,0.002984,0.093903,-0.115122,0.275909,0.166998,-0.341855,-0.250649,0.240617,0.231943,0.323330,0.414779,0.506291,1.097866,1.189505,0.781208,0.472976,0.264811,0.256712,0.048681,-0.159283,-0.267178,0.424996,1.017240,1.309554,1.201939,1.294396,1.286925,1.479527,1.372203,0.964952,1.457776,1.550675,1.943650,1.736701,1.929828,1.223033,1.116316,1.109677,1.103116,1.096635,0.790233,0.983912,1.177671,1.171512,1.265434,0.859438,0.953524,1.047693,0.841945,0.436281,0.330701,0.225206,0.319795,0.314469,-0.090772,-0.495926,-0.300995,0.194023,0.089128,0.084319,-0.220402,-0.025035,-0.029581,-0.134038,-0.038407,-0.242687,-0.246879,-0.050981,-0.054995,0.141082,0.237248,-0.166496,0.129849,-0.173714,-0.377188,-0.080571,0.216136,0.612934,0.709823,0.606803,0.403874,0.301036,0.198290,0.095634,0.593070,0.790597,0.988215,1.385925,1.083726,0.881618,0.879602,0.977677,0.975843,0.974101,0.672449,0.570889,0.569420,0.968042,0.866755,0.465558,0.964452,0.863437,0.362512,0.161677,0.760932,0.560277,0.659712,0.959237,0.958851,1.058554,0.858346,0.458227,0.658196,0.558253,0.458399,0.558632,0.158953,-0.140639,-0.140144,-0.039563,0.261105,0.161859,-0.137301,0.063623,0.164633,-0.134272,-0.333093,-0.331831,-0.230485,-0.329055,-0.127543,0.174052,-0.024272,-0.522514,-0.920675,-0.818755,-0.616755,-0.714675,-0.512516,-0.410278,-0.707962,-0.505568,-0.203096,-0.400548,-0.897923,-1.195222,-0.992446,-0.489595,-0.086670,-0.283671,-0.380599,-0.477454,-0.174237,0.129051,-0.067590,-0.164160,-0.060661,0.242908,0.646545,0.550250,0.554022,1.057861,1.161766,0.565736,0.069771,-0.326129,-0.021966,0.282259,0.586547,1.090896,1.095306,1.099777,0.604306,0.308895,-0.386458,-0.181754,-0.176994,0.427823,0.332695,0.037621,-0.157399,0.047634,0.052720,0.257857,0.663045,0.968283,0.873571,0.478907,-0.015709,-0.110278,0.295200,0.300723,0.306291,0.111903,-0.182441,-0.176743,-0.571004,-0.365223,-0.259403,-0.153542,-0.047644,-0.341707,-0.335734,-0.829724,-0.523679,-0.417599,-0.111486,-0.405339,-0.699160,-0.392950,-0.186709,-0.480439,-0.574139,-0.567811,-0.261456,-0.355075,-0.848667,-0.742235,-0.535779,-0.429299,-0.522797,-0.516273,-0.909729,-0.703164,-0.696580,-0.489978,-0.283358,-0.476721,-0.770069,-0.563401,-0.456719,-0.450023,-0.343315,-0.236595,-0.229863,-0.223122,-0.416371,-0.409611,-0.302843,-0.096069,-0.389288,0.317499,0.724290,0.731085,0.637883,-0.055317,0.051485,-0.041713,0.065090,0.571891,0.378691,0.485489,0.492283,0.299074,-0.194140,0.112640,0.219414,0.226181,-0.267060,-0.060309,-0.153568,0.153163,0.259884,-0.133407,-0.726710,-0.520026,0.086644,0.293300,-0.200059,-0.393434,-0.086826,0.019765,0.026338,-0.367108,-0.260573,-0.254058,-0.047563,-0.441090,-0.234640,-0.728212,-0.421807,-0.415427,-0.609071,-0.602740,-0.596436,-0.090158,0.716092,0.922314,0.128508,-0.265327,-0.459192,0.346912,0.652986,0.459028,0.565038,0.271015,-0.323041,-0.017132,0.388744,0.394584,0.400389,0.306157,0.211889,-0.082416,-0.276759,-0.271140,0.334440,0.439981,0.445482,0.650942,0.156362,-0.138259,0.067078,0.272373,0.377626,0.382835,0.288001,0.493122,0.598200,0.503232,0.108219,-0.086839,0.018057,0.522906,1.127708,0.832464,-0.162829,-0.058169,-0.053558,-0.348995,-0.644482,-0.340017,-0.235602,-0.331238,-0.426923,-0.122659,0.181554,-0.114285,-0.310174,-0.606116,-0.702109,-0.598155,-0.394253,-0.290404,-0.286608,-0.582865,-0.679176,-0.675540,-0.771958,-0.368431,-0.464957,-0.361538,-0.758173,-1.154863,-0.751608,-0.748408,-0.745264,-0.742174,-0.539140,-1.036162,-1.333239,-1.330373,-0.827562,-0.824806,-1.022107,-1.019464,-1.116878,-1.114347,-0.911873,-1.209455,-0.907093,-1.004788,-0.802539,-1.000346,-0.898210,-0.496130,-0.694107,-0.792139,-0.490228,-0.688374,-0.386575,0.015167,0.416853,0.418484,0.020058,-0.478424,-0.176961,-0.075554,-0.174203,-0.672907,-0.371666,-0.470481,-0.669350,-0.568275,-0.567254,-0.166288,-0.265377,-0.364519,-0.163716,-0.362967,-0.562271,-0.561629,0.238959,0.439495,0.539977,0.240407,-0.059215,0.041110,0.041383,0.141605,0.441775,0.441893,0.041961,0.041978,-0.058055,0.141862,-0.258272,-0.158455,0.141313,-0.058968,-0.359297,-0.259675,-0.460101,-0.460575,-0.261096,-0.061664,-0.062278,0.037061,0.136354,-0.064398,-0.465196,-0.066038,0.033075,-0.067856,0.331169,0.330151,0.129090,0.327987,0.226841,0.225653,0.024424,0.123155,0.121844,-0.179506,-0.180896,0.017675,0.316207,0.414700,0.413156,0.011574,0.009955,0.108299,0.706607,0.504880,0.503117,0.201319,0.099487,0.197621,0.095722,-0.006210,-0.108175,-0.510172,-0.112200,0.085741,0.083651,0.181531,0.079381,-0.122797,0.374995,0.472760,0.270497,0.268206,0.065889,-0.036454,-0.338823,-0.341217,-0.243636,-0.046079,-0.248545,-0.351035,-0.353548,-0.356083,-0.358639,-0.361217,-0.563815,-0.266434,-0.169072,0.028271,-0.174405,-0.477099,-0.879811,-0.882540,-0.685286,-0.188048,0.009175,-0.093618,0.003575,-0.299247,-0.002082,0.395070,0.492209,-0.010664,-0.213549,-0.116444,-0.019351,0.177732,-0.125194,-0.128130,-0.531074,-0.134027,-0.736987,-0.539955,-0.342929,-0.445910,-0.248897,-0.251889,0.145114,-0.257887,-0.260892,0.036099,0.133088,0.130073,0.127057,0.024039,0.221019,0.517999,0.514979,0.711959,1.008939,1.005921,0.602903,0.599888,0.896875,0.993865,0.890858,0.887854,0.484854,0.281859,0.078869,0.175883,0.572904,0.069930,-0.333037,-0.435998,-0.638951,-0.141897,-0.244835,-0.147765,-0.050686,0.146402,0.743499,0.540606,0.637723,0.334851,-0.068011,-0.370862,0.026299,0.423472,0.620656,0.517853,0.215063,-0.087714,0.209522,0.806771,1.204035,1.101313,1.098605,1.095912,0.693234,0.390571,0.487924,0.885293,0.882678,0.880079,0.777497,0.774932,0.872384,0.969853,0.767340,0.464844,0.162366,0.259907,0.257466,0.255044,0.252640,0.450255,0.147890,0.045544,0.243217,0.240911,0.338624,0.336357,0.534110,0.631883,0.529677,0.127492,0.025328,0.723184,1.121061,1.118960,1.016880,0.914821,1.412783,1.810767,1.508773,0.706801,0.904850,1.502922,1.401015,1.299131,1.597268,1.295428,1.093610,0.991815,0.890042,0.388291,0.586563,0.184857,0.683174,1.281513,1.179875,0.878260,0.676667,0.475097,0.373549,0.472025,0.470522,0.569043,0.467586,0.366152,0.464740,0.663351,0.461984,0.560640,0.859318,0.458019,0.456743,0.355488,0.354256,0.453047,0.451859,0.650694,0.949551,0.848430,0.747330,0.646253,0.245198,0.344164,0.343152,-0.357838,-0.558807,-0.459754,-0.360680,0.238416,-0.262468,0.236670,0.135828,-0.264992,-0.465792,-0.266571,-0.167329,0.031933,0.031215,-0.269482,-0.370159,-0.170816,0.028547,0.327929,0.327332,-0.273247,-0.473805,-0.474345,-0.274865,-0.475366,-1.075848,-1.076311,-1.076756,-0.677182,-0.177590,-0.677979,-0.978350,-0.878704,-1.179039,-1.179356,-1.379656,-1.479938,-1.380203,-1.580451,-1.480682,-1.580895,-1.281092,-1.281272,-1.181436,-1.681583,-1.181714,-0.581829,-0.681927,-0.682010,-0.482077,-0.482128,-0.682164,-0.782185,-0.882190,-1.082180,-0.882155,-0.682116,-0.582061,-0.581992,-0.981909,-1.181811,-0.881699,-0.481573,-0.681433,-0.681279,-0.281111,-0.380930,-0.380735,-0.380527,0.119694,0.219929,0.520177,-0.179563,-0.179290,0.120997,0.521295,0.421606,0.921930,0.822266,0.522614,0.522974,0.623346,0.523730,0.624126,0.824533,0.624953,0.725383,0.125826,0.126279,0.826744,0.427220,0.027708,0.028206,-0.171285,-0.170765,-0.270234,-0.069692,0.230861,-0.168576,-0.268002,-0.167418,-0.166823,-0.266218,-0.565602,-0.264976,-0.164340,-0.563693,-0.363037,-0.162370,-0.061693,-0.261006,-0.560309,-0.759602,-0.958885,-1.358158,-1.157421,-0.856674,-0.755918,-0.855151,-0.654375,-0.853588,-0.952792,-0.751987,-0.651171,-0.150346,-0.649510,-0.848665,-1.147811,-1.046946,-0.846072,-1.045188,-1.544293,-1.243390,-0.942476,-0.841552,-1.040619,-0.939676,-0.938722,-1.037759,-0.936786,-0.735803,-0.334809,-0.433806,-0.332793,-0.431769,-0.430735,-0.429692,-0.128637,0.072427,-0.226498,-0.625413,-0.524317,-0.223211,-0.522094,-0.320967,-0.319829,-0.318680,-0.517521,-0.416351,-0.315169,-0.113977,-0.612774,-0.911560,-0.610335,-0.109098,-0.307850,-0.106591,0.394679,0.295961,0.097255,-0.201440,-0.300123,0.201206,0.402546,0.503899,0.305263,0.606640,0.408029,0.009430,-0.189157,0.112269,0.413707,0.715158,0.716621,0.118097,0.219586,0.321088,0.322603,0.324131,0.225672,0.027226,0.428794,0.530375,0.831969,0.333577,0.235199,0.336834,1.038483,1.440146,1.141823,1.043514,0.745219,0.246939,0.348672,0.750420,0.852183,0.853960,0.455752,-0.142442,0.059379,0.361215,0.163065,0.064931,-0.333188,-0.031292,0.470619,0.772545,0.574487,0.276444,0.278416,0.380404,0.082408,0.484427,-0.013538,-0.111488,0.090579,0.692661,0.694759,0.596873,0.099003,-0.398850,-0.196688,0.205491,0.107685,-0.490104,-0.487876,-0.485633,-0.383373,-0.381097,0.221196,0.523505,0.625831,0.328173,0.130532,0.132907,0.035299,0.037708,0.040133,0.242574,0.145033,0.347508,0.249999,0.652507,0.655032,0.657573,0.560132,0.362706,0.765298,0.767905,0.870530,0.973171,0.775829,0.778503,0.681193,0.883901,0.886624,0.889364,0.392120,0.494893,0.897682,1.000487,0.603309,0.306146,0.109000,0.411869,0.214755,0.217656,0.220574,0.423507,0.426455,0.029420,0.032400,-0.264605,-0.061594,0.041432,0.244473,0.047530,-0.149399,-0.246313,0.056788,-0.040096,-0.236966,-0.933821,-0.630662,-0.627488,-0.624301,-1.121099,-1.217884,-1.014655,-0.811413,-0.608157,-0.904887,-1.201605,-1.398309,-1.295001,-1.191680,-0.588346,-0.085001,-0.581642,-0.578272,-0.274890,-0.071497,0.231909,0.035325,-0.061247,-0.557809,-0.854360,-0.150900,0.352570,0.056051,-0.240459,-0.736959,-0.633450,0.070069,0.273597,0.177133,0.080678,-0.515768,-0.212206,-0.308637,-0.405059,-0.901475,-0.897883,-0.494284,-0.190679,-0.487067,-0.983449,-0.879825,-0.476196,-0.072561,-0.068921,-0.065277,-0.261628,-0.257975,-0.354318,-0.350657,-0.246993,-0.343326,-0.439657,-0.535985,-0.532311,-0.528635,-0.224958,-0.121279,-0.117600,-0.413920,-0.310241,-0.206561,-0.402882,-0.099204,-0.295527,-0.091851,-0.388178,-0.384507,0.419162,0.522827,0.426490,0.230148,0.233802,0.437452,0.041097,-0.155263,0.248372,0.252000,0.455622,0.159237,0.162845,0.066445,-0.029962,-0.326378,-0.122803,0.780763,0.984320,1.087867,0.791403,0.494928,0.598442,1.201945,1.105435,0.908913,0.912378,1.315830,1.319267,1.322691,1.426099,1.529493,1.332871,0.936233,0.839579,1.142907,1.146218,1.449512,1.452787,1.356043,1.659280,1.162498,0.965695,0.868872,1.072028,1.275162,0.678274,0.981364,1.284431,1.487474,1.090494,0.693489,0.596460,0.599405,0.602324,0.705217,0.508084,0.410923,0.313734,0.516518,0.519273,0.621998,0.524694,0.427360,0.329996,0.332600,0.535173,0.837714,1.040222,1.442698,1.045140,0.547548,0.349922,0.152261,0.054564,0.256832,0.459064,0.561259,0.363416,0.565536,0.667618,0.169661,0.371665,0.173629,-0.024446,-0.122562,-0.720719,-0.818917,-1.017157,-0.815440,-0.513765,-0.612133,-1.210545,-1.209002,-1.007502,-0.706048,-0.504639,-0.703275,-0.901958,-1.000688,-0.599465,-1.098289,-0.897161,-0.496082,-0.395051,-0.694069,-1.493137,-1.392255,-0.591423,0.209358,0.010088,-0.289233,-0.088607,-0.288032,-0.687510,-0.487041,-0.386626,-0.586264,-0.585956,-0.685702,-0.585503,-0.085359,0.414730,0.514763,0.214740,-0.285340,-0.485475,-0.585668,0.014082,0.013775,-0.186590,-0.087013,0.112506,0.711966,0.711368,0.510710,0.209994,0.409217,0.208382,0.607486,0.806530,0.405514,0.604437,0.303299,0.302101,0.600841,0.399521,0.498138,0.596695,0.295189,-0.006378,-0.208007,0.290302,-0.111451,-0.113267,-0.615145,-1.017086,-1.119089,-1.321154,-1.023283,-0.925474,-0.927727,-1.130044,-1.032423,-0.734865,-0.637370,-0.639938,-0.942568,-1.045262,-0.748018,-0.550836,-0.653718,-0.856662,-0.759668,-0.362737,0.134132,0.130939,-0.172317,-0.175634,0.220987,0.217546,-0.085956,-0.789520,-0.993145,-0.396831,0.099422,0.295615,0.091747,0.287819,0.283832,0.079784,0.075678,-0.328488,-0.132713,-0.336996,-0.541337,-0.345736,-0.150193,0.045294,0.140723,0.136096,-0.168587,0.126674,0.221880,0.217032,0.012128,0.007171,-0.097840,-0.102903,-0.108020,-0.013188,-0.018408,-0.223679,-0.029000,-0.234372,0.160208,-0.045262,-0.550780,-0.856346,-0.361958,-0.567617,-0.873322,-1.079072,-0.684867,-0.590705,-0.596587,-0.302511,-0.408477,-0.214483,-0.220530,-0.226617,-0.232742,-0.338905,-0.145106,-0.351342,-0.157615,0.236078,0.029737,-0.276637,-0.383043,-0.189480,-0.095948,-0.102445,-0.108970,-0.315524,-0.222103,-0.128709,-0.335339,-0.541992,-0.248669,-0.355367,0.137915,-0.068823,-0.175580,-0.382353,-0.189143,0.004052,-0.102768,-0.409600,-0.216443,-0.223298,0.069839,-0.137033,-0.543912,-0.550796,-0.157685,-0.264577,0.228529,0.421634,0.314740,-0.092152,-0.299041,0.094075,0.387197,0.980326,0.873464,0.266612,0.359772,0.052945,0.046132,0.339335,0.132556,0.125795,0.319055,0.312337,0.605642,0.498972,0.392329,0.785714,1.179129,1.072575,0.666055,0.059568,0.253119,0.446707,0.940335,1.134004,0.827716,0.421473,0.215277,0.209129,0.503031,0.596985,0.290993,-0.014944,-0.120823,0.073357,-0.132402,-0.538098,-0.743729,-0.849293,-0.354789,0.139786,0.234434,0.429156,0.223955,0.318833,0.213791,0.608832,0.403958,-0.300829,-0.205528,-0.110136,0.285350,0.280930,0.176608,-0.227614,-0.431735,-0.235751,-0.139662,-0.543464,-0.347156,-0.550735,0.045801,0.042455,-0.560772,-0.763877,-0.966857,-0.669711,-0.272436,-0.375029,-0.277488,-0.379811,-0.481996,-0.584040,-0.185939,-0.087693,0.010701,0.409247,0.507946,0.706801,0.305815,-0.295010,-0.295671,-0.096166,0.503508,0.503353,0.203373,0.403570,0.503946,0.404505,0.305249,0.306180,0.107302,-0.291384,-0.389873,-0.388163,-0.486252,-0.584137,-0.381814,-0.579282,-0.376536,-0.273575,-0.470395,-0.566994,-0.163368,0.140486,0.244569,0.248886,0.153440,-0.441767,-0.736732,-0.631452,-0.225923,0.279858,0.185893,0.192186,0.198739,0.105557,0.012642,0.319996,0.827625,0.835530,1.043714,0.552182,0.360936,0.269980,0.279316,0.188948,0.398880,0.609114,0.719655,0.330505,0.441667,0.253146,0.164944,0.077065,0.289513,0.502290,0.115401