1,2,-6.071691,3.353357,15.364727,22.163444,25.050551,26.827113,23.794203,17.452906,13.004305,10.049485,2.589519,-6.074529,-11.241611,-13.810703,-13.680804,-10.550942,-6.120178,-1.287610,7.147624,17.286346,24.729332,32.877311,40.930962,43.690915,40.857750,33.631994,26.514123,20.404562,12.203687,2.211823,-4.870749,-7.643797,-7.207128,-8.660593,-10.304077,-6.837503,-0.160822,5.225983,8.322907,7.629922,3.946980,0.074020,-3.489033,-9.142262,-18.085755,-28.419604,-34.543903,-33.058743,-29.664210,-29.960385,-31.047343,-27.425148,-13.793857,2.746485,13.195843,17.154193,16.321519,16.897819,18.783098,13.877371,1.280660,-8.807004,-13.285587,-19.155048,-29.015344,-32.966429,-26.708261,-17.540794,-9.563991,-2.577819,8.217749,23.422728,32.837122,33.560923,31.094105,28.336628,24.588432,15.849438,2.819547,-6.601361,-9.413429,-8.716822,-8.211728,-10.698356,-12.176940,-5.747733,5.388987,13.432922,18.583753,21.841144,21.404739,20.174164,17.249032,10.628943,3.113482,-4.897771,-14.305246,-19.509378,-18.710604,-15.609360,-11.406082,-4.901199,3.704866,11.911700,17.518904,21.326093,23.432897,20.738970,15.443986,9.347644,0.249670,-11.450181,-24.052122,-35.156333,-41.362960,-39.172112,-29.683859,-17.998236,-7.815234,-0.934809,1.843127,4.118699,9.392072,15.863452,17.833081,15.901238,9.668242,-2.565557,-17.499774,-27.833991,-31.267760,-28.800606,-21.432026,-11.561494,-1.488460,10.487643,21.867401,23.251414,20.140293,23.034660,26.135144,26.242379,25.256999,17.479642,5.310941,-3.848474,-9.997978,-14.436955,-13.964799,-13.380913,-15.084717,-13.675643,-7.153141,-0.516680,5.634253,9.800147,10.681467,9.878656,8.092127,2.722266,-5.130570,-11.266056,-13.183901,-13.783845,-16.965667,-21.229179,-22.574234,-16.900723,-5.208578,6.402227,16.731678,27.279715,34.446233,35.631084,31.634074,25.054964,16.093468,5.549256,-3.578049,-11.188867,-17.183662,-19.762943,-19.027260,-17.877204,-15.013408,-7.936541,2.752688,12.253533,17.165213,19.186915,21.317792,20.056966,11.903533,0.456557,-9.884919,-19.021879,-27.855327,-32.686288,-33.315804,-29.344934,-19.274754,-5.506349,4.959183,12.120734,19.777188,23.527425,20.570319,15.604741,14.229564,15.443660,11.645907,-0.464812,-12.989607,-20.929574,-24.085799,-23.159350,-17.951278,-11.562613,-5.994361,2.152500,13.777019,24.178278,27.655397,30.107532,34.633881,34.533690,25.506251,11.650912,-3.332924,-15.745793,-20.688164,-19.860440,-17.462947,-16.095937,-12.259577,-1.453952,11.020946,18.365217,19.279059,21.662772,26.016759,25.741535,19.537723,9.206066,-2.352579,-11.137230,-19.746784,-28.080009,-29.035545,-25.911904,-27.607465,-32.020475,-28.249049,-15.091170,-2.644688,1.092676,-2.876669,-3.950187,-0.825219,-3.398981,-11.968574,-19.530983,-24.683082,-29.221640,-31.743326,-25.544711,-13.522278,-4.672425,1.908528,11.324332,21.478806,29.675824,35.019314,35.713249,34.561643,31.768538,20.838007,7.074139,-2.418961,-14.337182,-25.176409,-26.532534,-22.301454,-17.779084,-11.561358,-1.044234,11.576298,21.904216,28.243459,32.797921,36.171451,34.267848,23.390855,8.044161,-2.068606,-8.243878,-9.178152,-4.667990,-1.110020,-0.100940
1,2,-0.301588,-1.352303,-4.199127,-8.739588,-3.971227,10.308394,22.201683,25.511011,23.238699,22.087015,24.758165,24.954280,18.677417,8.329547,-2.487449,-11.371790,-15.321793,-13.735886,-9.312608,-1.650611,7.851329,16.994318,24.879335,33.107233,40.178738,41.594448,38.454831,36.360229,33.410859,24.406810,11.848054,1.934440,-4.234296,-11.758531,-22.038748,-28.175531,-27.369564,-18.921622,-7.132566,5.496663,15.465047,21.071501,23.214875,21.693964,17.607512,11.354217,0.132741,-13.958289,-26.720269,-38.454619,-45.762772,-45.146171,-41.306264,-36.544501,-27.162324,-13.261171,-2.142466,4.392381,9.541978,11.604953,10.079955,8.165659,4.160764,-2.736003,-10.025886,-18.210101,-26.789836,-30.566246,-28.640458,-22.513569,-12.986644,0.039278,14.163189,25.984109,29.501086,27.813193,30.919531,39.119228,42.811437,35.795334,18.870124,1.435035,-9.310679,-14.567738,-19.336836,-19.418640,-13.313789,-6.522895,-1.046542,4.914718,13.160360,20.289893,22.202856,21.198822,17.377398,7.538225,-6.219019,-15.894621,-19.488829,-22.601852,-23.533860,-19.084983,-14.155309,-12.944887,-11.453722,-6.881777,2.171024,14.704803,23.719722,29.015984,30.493836,23.353563,8.995493,-6.580007,-20.572530,-32.381632,-39.806829,-40.847602,-37.403396,-28.973622,-17.657660,-5.554856,9.235469,24.714023,33.281538,35.638770,37.886495,38.625506,33.656614,23.980645,12.498435,-2.689165,-20.181301,-29.977108,-29.475718,-26.876261,-25.177866,-23.079661,-17.380783,-8.380371,0.422427,7.628450,10.838524,9.753459,8.374049,8.801061,6.335244,-4.722684,-18.972031,-25.612139,-22.742380,-17.562167,-15.870948,-13.668214,-3.153496,12.673628,27.513535,37.466551,41.132956,41.112979,39.906797,36.614535,30.336267,18.972015,5.321751,-7.414604,-17.837179,-25.046150,-27.441741,-26.824219,-24.793897,-17.851128,-6.396303,2.770145,5.847752,10.136018,16.034413,18.642378,17.459327,11.284651,0.617718,-10.042119,-18.795527,-23.443186,-22.085784,-17.124019,-12.558595,-8.290217,-0.319591,10.452579,20.725597,27.698771,29.571424,27.842888,24.012513,15.979668,0.843744,-14.795847,-21.639664,-21.588236,-22.842063,-27.401609,-29.167302,-23.839532,-12.918648,-3.104956,2.401278,9.699838,19.190550,25.373293,27.347989,26.414615,18.373195,3.523808,-11.133418,-18.298300,-18.770600,-17.450030,-19.536246,-22.728848,-18.627385,-4.931352,6.359812,12.446718,18.830030,25.010463,27.788781,23.565799,15.942377,9.819424,4.697892,-0.621222,-7.436881,-12.948007,-15.453487,-15.152169,-12.642871,-7.624379,0.004546,9.745169,16.598773,17.766661,15.250144,16.550545,17.269188,10.207398,-3.433508,-20.452227,-37.147470,-46.617976,-47.262513,-44.079889,-41.568957,-37.328625,-28.557864,-13.255715,3.778699,17.846163,26.347364,31.182875,33.153150,32.658509,27.099131,14.375038,0.086090,-10.268029,-17.387826,-20.774002,-20.427471,-15.749365,-8.741052,-3.004140,1.459505,6.747752,10.258192,10.688127,10.634559,8.694178,4.363355,0.738125,-1.785817,-7.213131,-15.548839,-24.598337,-28.967402,-24.162204,-14.189313,-2.255709,12.531212,26.363626,36.133277,44.231471,51.549065,53.276466,47.803620,39.220013,33.314664,28.876121,21.692459,11.551276
1,2,8.550072,-0.385647,-10.906226,-22.113544,-32.609532,-33.896168,-29.675471,-25.349488,-19.420292,-8.589972,2.839378,10.065660,15.786786,20.500683,22.405301,21.098620,14.578660,3.743484,-8.808790,-18.479987,-21.671865,-21.986109,-24.124326,-26.888039,-26.478684,-22.297601,-13.846034,-3.225123,3.264094,4.820687,3.943836,2.432833,2.887080,1.206094,-6.910497,-16.462950,-23.751413,-31.575921,-40.136404,-44.732685,-41.064483,-30.731422,-16.833027,-2.568736,8.362101,16.860213,22.926402,23.961543,21.766569,19.742473,16.890298,9.111131,-0.293905,-7.623651,-12.876926,-13.152530,-7.849247,-4.465855,-2.201131,4.646144,13.277179,20.593169,28.495290,33.784692,34.762497,33.229795,29.087641,21.337048,9.778990,-2.585603,-11.155850,-17.630915,-22.210012,-18.692404,-8.577406,-2.064382,-0.952748,2.258030,8.668435,16.578903,22.889819,24.001524,24.814313,25.628437,19.944108,8.761498,-0.919255,-6.698048,-11.774806,-15.849483,-15.322056,-12.792520,-7.460890,0.572805,3.008527,0.046228,-0.414142,3.427362,2.870690,-3.384208,-8.037374,-10.488843,-14.738636,-20.986767,-25.133231,-27.278011,-30.621072,-31.962364,-26.901817,-14.539345,-1.974844,4.691807,7.960746,12.632126,18.006117,20.882899,19.962667,15.445628,7.231996,-2.078005,-8.684145,-11.786187,-14.483894,-14.977025,-9.765339,-1.348597,3.873438,8.400995,14.834299,20.273566,23.919001,23.470799,19.229142,15.194197,9.566118,0.245039,-9.068921,-15.575660,-19.675098,-22.667174,-22.051846,-18.229096,-13.898928,-6.961365,3.483541,13.835719,20.595070,23.361472,21.534778,18.314815,15.501383,7.094260,-4.506804,-12.602082,-16.291876,-20.776506,-23.556321,-19.031692,-11.103010,-4.570692,1.364827,8.603090,17.743620,22.485923,21.229487,17.973783,14.418270,7.862392,-3.394421,-10.952744,-14.213163,-14.976269,-15.442658,-16.912927,-17.487672,-14.367488,-3.252962,13.855323,29.056796,38.250899,41.237088,39.514838,35.983646,31.343031,22.792541,9.831756,-5.139714,-17.422217,-26.316063,-34.021519,-37.338805,-33.568090,-26.809492,-18.963075,-9.728847,-0.306756,5.103309,9.901519,15.888109,19.163374,16.627675,7.581433,-5.074867,-18.040678,-27.415391,-31.398338,-32.588793,-32.285973,-29.889041,-21.797109,-8.909242,2.275544,9.758268,15.839992,18.821806,18.504831,19.090213,17.779112,8.972707,-3.427817,-14.121270,-23.306465,-30.182222,-32.447373,-26.600768,-17.841282,-12.067819,-4.479316,8.125245,21.046841,29.386392,34.044765,38.022765,39.421127,33.140520,21.181533,11.344679,1.630386,-8.961001,-14.829229,-15.674134,-14.395647,-10.393795,-4.468701,-0.320588,5.850221,18.043303,23.658132,16.694082,10.350424,7.926328,5.720864,1.433001,-7.338389,-18.294532,-22.636751,-17.466461,-9.985168,-5.794468,-1.496044,4.608340,9.616834,15.927516,21.438386,22.347374,23.152344,25.251096,25.141372,20.220859,9.887195,-6.662028,-22.929259,-32.916981,-37.827708,-37.663981,-29.028361,-14.223425,0.448238,11.184031,17.781358,21.537623,23.450236,23.316622,21.034216,14.000477,0.912886,-10.331048,-16.133784,-20.697748,-26.425324,-28.418856,-25.780640,-20.612929,-16.217920,-13.097760,-6.754541,1.009703,4.492996,3.393421,-1.890876
1,2,0.108629,-10.984971,-25.954784,-37.699350,-39.617271,-36.107214,-33.267917,-26.298194,-16.896938,-9.063127,-0.695829,9.805799,23.042501,32.414922,34.323605,32.668988,28.051402,20.671068,15.628096,16.122487,13.654130,4.222800,-3.271834,-4.330216,-0.852897,5.659468,11.006120,13.286199,16.598749,21.642723,23.716984,23.320311,23.051405,18.208895,7.391340,-3.302760,-12.574961,-21.226869,-26.860132,-24.376432,-16.177480,-9.265013,-3.240778,3.493465,7.435956,8.084939,8.838666,9.695411,9.753465,6.711151,-4.633173,-18.881112,-26.534225,-29.294020,-35.261953,-41.839421,-42.327759,-35.828238,-22.842060,-6.770357,6.085812,15.125461,23.447682,28.451640,28.436580,26.701824,21.746772,12.170903,0.573773,-10.444985,-17.985660,-22.548467,-25.633545,-26.740960,-24.870707,-17.422711,-3.396831,7.807141,13.389473,17.050495,19.590592,19.610203,15.809817,8.789970,-0.548757,-12.505745,-25.580336,-34.171841,-32.679540,-25.602686,-20.440513,-16.292234,-5.757049,9.665856,21.977300,33.278106,45.669099,51.051101,46.024929,37.891392,27.051290,14.705409,5.054523,-5.100609,-17.859248,-27.920668,-29.584165,-25.149050,-18.214658,-6.880341,6.754530,18.390563,25.528344,29.668444,31.511411,28.957776,21.608053,9.662737,-3.877692,-15.212771,-24.442050,-29.165093,-26.781476,-21.990786,-17.492624,-12.886599,-7.572328,-2.349441,0.482426,1.223627,0.974507,1.735402,7.206641,13.088540,10.581408,0.285541,-10.298773,-16.071263,-20.831667,-24.679739,-26.515250,-26.537985,-21.847751,-8.944372,3.072303,10.302402,16.846030,22.303259,23.874136,22.158673,16.056853,2.768619,-11.106119,-17.567492,-20.215668,-24.550858,-26.173315,-23.583334,-16.381257,-2.267467,13.157604,25.193479,33.739635,40.395505,40.960473,34.833883,28.615034,25.203182,20.497546,12.097307,2.701613,-3.790420,-6.279703,-4.167172,-0.253781,-0.440500,0.271690,6.381801,12.488843,15.991832,19.589789,19.081751,15.366773,10.643932,2.712338,-9.628869,-23.980509,-37.143356,-43.518140,-42.705534,-37.606158,-29.720569,-17.549265,-2.892672,5.948848,7.675006,9.985586,14.980445,16.859516,14.122807,6.770402,-3.497537,-13.380775,-21.178999,-24.491826,-22.618797,-20.359386,-20.312995,-17.678964,-10.456570,-2.745028,5.056497,10.748897,13.633107,13.910105,9.680907,2.946563,-4.291853,-10.733243,-14.976493,-18.020478,-23.064069,-30.306137,-29.845563,-18.581236,-3.312068,11.663004,26.145013,37.934956,43.533784,43.942403,40.161663,34.092359,24.335218,11.390904,0.960008,-5.856956,-15.059551,-23.947420,-27.120295,-22.577992,-15.020417,-8.547568,-1.459537,6.943490,15.761229,23.493301,25.339228,20.998434,14.770243,9.953882,5.748482,2.253074,-1.433404,-7.912109,-16.084291,-21.451289,-20.014531,-12.075531,1.464115,15.902729,26.338558,31.269773,31.494478,28.010706,23.716431,18.609567,6.887974,-11.750539,-27.608207,-35.687306,-39.690148,-39.219080,-30.876471,-20.464718,-12.786232,-4.343442,6.861217,15.325300,21.946362,28.221961,31.049660,29.627032,23.551664,11.221160,-0.466855,-9.814729,-16.624785,-20.399311,-23.540563,-25.950756,-25.332067,-21.986627,-17.416522,-11.123791,-4.510422,-2.678352,-4.629463,-4.465587,-1.988495