1,3,-15.543077,10.114637,37.669864,56.523742,62.777424,63.132072,61.088847,53.448906,37.313388,15.383409,-11.439944,-34.355623,-39.862620,-31.059981,-20.546807,-10.822258,2.814437,25.463979,56.626995,84.604034,95.395564,90.101972,76.723559,59.160547,45.213071,31.181186,3.964867,-27.835988,-44.421556,-49.292084,-51.247884,-43.789331,-26.716858,-9.630949,4.767867,23.079016,40.501889,48.335850,48.080233,39.834359,23.197532,5.269051,-13.751787,-37.765680,-60.573315,-74.575366,-75.972485,-68.265300,-55.354413,-39.540390,-24.823764,-6.005033,20.015350,40.236968,44.659450,39.182465,29.605729,14.328999,-3.247924,-21.725195,-43.602928,-61.681196,-67.460034,-62.539437,-48.819368,-29.299757,-11.480504,5.138517,28.957456,55.076481,70.895778,74.115544,65.035987,47.457323,32.079769,19.503545,-1.571132,-27.044048,-40.114994,-39.783770,-36.050185,-29.914060,-17.875227,-2.633533,14.811159,37.258971,56.210007,62.064356,57.222084,46.083244,30.447869,14.415972,-1.812448,-23.637409,-48.858947,-64.277111,-63.791964,-53.203582,-38.312056,-22.217486,-7.219984,13.380327,40.083314,58.188836,59.196740,50.506867,37.819048,23.433106,9.448858,-9.433887,-39.515326,-67.995661,-77.375104,-69.353868,-54.032177,-35.210258,-18.988348,-3.666692,19.654456,42.874832,53.294160,51.212150,43.328497,31.042884,13.754972,-5.635593,-31.629186,-59.126200,-70.827053,-65.032185,-53.842057,-42.457160,-30.778005,-15.805135,8.660881,45.419448,79.369938,91.711699,86.644048,77.066276,62.077647,45.277403,30.764762,9.038926,-20.500919,-38.655599,-39.025946,-30.812793,-20.616974,-10.439312,-0.780617,15.558319,41.476728,63.473874,65.549057,52.601620,38.630955,25.236510,7.417795,-18.625613,-48.394062,-70.487820,-76.907070,-70.251903,-57.222317,-44.418210,-30.239376,-9.085506,15.543817,36.049122,43.931045,37.590333,24.127846,8.244551,-7.758476,-21.580052,-37.518893,-59.573613,-77.542729,-80.924669,-73.417776,-60.620310,-43.830462,-24.546356,-3.866059,22.212408,47.591066,61.071964,60.857170,52.948765,40.248827,26.059426,10.782610,-11.779602,-36.325231,-49.852350,-51.359089,-45.443652,-33.404317,-18.039455,-0.847533,22.572874,51.823078,71.204265,70.717491,61.363676,49.743592,33.557863,17.906956,2.691182,-20.589318,-44.834563,-55.044747,-50.820231,-38.661550,-22.269412,-6.544697,7.611543,28.898084,53.413535,65.356339,62.824777,55.816971,45.230894,30.064370,16.515085,1.480593,-24.141674,-48.454398,-54.360366,-46.262457,-34.463632,-21.066924,-7.075425,11.207729,36.479368,55.236304,57.675343,53.693302,48.687023,36.553389,16.689340,-5.608111,-28.341858,-48.114689,-57.629264,-55.388103,-46.793562,-36.047818,-23.352854,-8.210433,11.777911,34.410895,51.487507,57.207020,50.169011,37.073382,24.920372,12.810582,-5.055017,-30.175055,-54.847754,-67.770910,-66.441872,-55.257532,-37.814302,-18.508105,1.265644,22.712049,45.136752,57.545942,52.646371,38.045364,21.350836,6.471299,-7.084124,-27.105687,-50.483013,-64.005081,-64.860220,-61.336097,-51.319711,-34.097382,-17.654750,-1.676763,20.952327,44.648968,56.330315,54.714232,46.119300,31.964815,14.070798,-8.542008,-33.452130,-51.037367,-56.074785,-49.240715,-36.810753,-21.659760,-6.561857
1,3,-1.199603,-9.186911,-22.672645,-36.759969,-55.652017,-80.451879,-99.162586,-99.587099,-88.028293,-75.588948,-62.771740,-45.579226,-21.413840,5.722118,23.926488,26.997254,20.332553,11.330674,1.290066,-11.490664,-27.112746,-47.477250,-66.585086,-75.537003,-75.833596,-70.075304,-55.262420,-34.095091,-10.573329,18.502989,50.534107,69.320389,68.462305,59.860427,52.915422,46.328037,33.099099,10.829501,-14.579805,-34.827814,-40.913480,-38.535718,-33.993419,-22.085452,-3.510672,15.532071,36.343925,54.726032,66.079522,71.305504,66.705064,50.179261,30.129121,14.855635,-3.440244,-30.757604,-50.295574,-49.453327,-39.030082,-29.225100,-18.937690,-3.567205,18.686958,43.925358,63.848511,70.856893,63.150942,48.131058,31.597608,14.850930,-2.108666,-22.580895,-42.865489,-55.162198,-58.770782,-55.491010,-46.422657,-33.465496,-18.919298,0.516171,26.941156,46.455912,48.860712,38.955843,25.541615,12.418358,0.486428,-14.653794,-36.601899,-58.657448,-69.519974,-65.688979,-52.563932,-36.744274,-21.329416,-3.618739,21.188405,46.492687,57.194804,53.795476,44.795442,31.595459,18.396299,3.698746,-21.096406,-47.488355,-58.076297,-54.359426,-45.336941,-33.408044,-20.871951,-10.827888,4.624897,29.487137,50.259539,55.842777,53.337493,46.944293,29.963738,7.896347,-11.157413,-30.197121,-49.022417,-61.332994,-59.328605,-46.809070,-29.974269,-10.724153,7.241258,24.821874,46.217531,68.927990,82.452938,81.291986,68.044670,47.910452,27.288719,5.378786,-24.520102,-53.008766,-64.088096,-59.459040,-48.422606,-34.079858,-17.631911,0.820074,27.174890,53.931293,65.988005,62.843717,55.597096,46.446791,28.591435,5.329655,-20.039925,-47.018678,-66.207965,-70.209133,-63.223508,-51.452387,-36.797035,-18.558679,4.861498,31.362361,48.642827,51.101874,48.738540,43.051931,28.541225,10.805675,-3.655386,-21.842542,-43.556288,-55.597029,-52.865076,-45.260641,-34.583838,-16.734678,3.186933,23.881194,48.648412,68.089000,68.203483,53.692496,37.356781,23.297194,13.614699,-3.889631,-35.714611,-62.158951,-71.121255,-68.900021,-61.193647,-48.600434,-33.818587,-16.446221,7.618631,34.078018,49.734062,48.188950,35.144931,19.304306,6.769419,-6.057348,-27.673583,-54.976857,-71.064731,-69.934765,-60.384528,-49.511609,-38.813628,-24.088247,-2.033180,26.453794,50.974821,61.631961,59.727173,51.762310,42.239102,32.059149,15.523911,-10.765304,-36.907348,-49.701241,-49.246182,-41.341557,-26.286942,-6.282117,15.272934,38.378011,59.932698,71.436355,71.288115,62.686883,50.531330,38.419897,25.350787,4.621975,-27.868799,-56.424025,-64.046418,-55.238917,-43.404682,-31.347084,-14.969707,6.523666,33.029054,56.242289,62.559020,55.374728,45.184732,34.584197,21.968152,3.731495,-23.030991,-51.424624,-68.654812,-68.327039,-53.646845,-31.419818,-9.351572,8.052265,25.886070,47.544239,67.021209,77.611473,76.209599,63.610251,45.808207,29.698377,14.075829,-7.664194,-33.426252,-48.514688,-49.133602,-43.086833,-33.077939,-17.010169,1.413551,24.890644,52.818901,69.696502,67.222038,56.094527,39.513440,14.278713,-13.909229,-42.349457,-71.340516,-95.180417,-105.266614,-103.195991,-96.264851,-86.168903,-74.803249,-63.462377,-46.040150,-25.829801,-15.023922,-15.414464
1,3,-17.938947,6.214292,18.347526,16.658744,8.046031,-1.792417,-11.058293,-22.253171,-42.278504,-65.335614,-78.425698,-78.949818,-71.408902,-56.403747,-35.735013,-14.003228,6.991210,29.048032,47.767097,54.648382,50.291985,40.098116,26.167096,12.099348,-2.004608,-19.144156,-33.818595,-37.927142,-34.268942,-30.643069,-26.848536,-16.284301,2.650726,26.757676,51.837716,66.992041,67.521866,59.928423,50.512952,37.176698,18.020902,-7.553201,-38.044390,-63.651459,-72.173228,-63.608541,-45.656272,-24.615331,-5.184669,14.836723,40.649806,64.655491,72.654638,65.648048,52.236467,34.620580,17.101011,-0.421679,-23.746993,-45.774497,-52.403823,-48.134666,-41.166785,-32.800005,-19.734212,-4.369357,9.894549,28.657432,49.019159,58.479539,54.838324,42.795211,26.249845,11.201821,-3.949316,-25.904063,-49.762960,-62.526586,-59.295556,-47.970516,-34.252144,-17.441142,2.261764,25.455826,49.440282,62.714355,63.277257,55.028193,39.466365,23.090975,10.501229,-7.603663,-33.824476,-55.361972,-63.216897,-61.989972,-54.081896,-40.493340,-24.424944,-8.477317,13.048969,37.153380,52.935418,54.094629,43.630601,25.742967,6.031404,-10.704361,-28.664553,-48.049348,-56.458870,-53.693191,-45.252330,-29.936253,-13.044871,0.221958,17.264430,43.282797,66.377364,75.148492,73.396596,65.922146,52.025667,32.907742,8.969007,-19.789843,-46.168056,-59.964823,-62.079276,-56.610491,-43.557484,-28.819214,-14.694582,7.017565,33.518437,48.809298,47.291463,38.366297,30.735216,21.299678,1.961190,-28.578705,-58.718423,-74.756346,-77.890824,-75.420180,-66.442715,-46.356711,-20.560435,4.947852,30.669893,52.207427,62.662184,60.535881,48.830213,31.746848,16.487424,5.753539,-9.753249,-32.731434,-50.179560,-53.396231,-46.380115,-31.629945,-12.644529,5.377250,28.236427,57.733955,80.170698,85.847430,78.164832,62.123489,42.123892,23.966433,3.351406,-28.420993,-59.650666,-71.137614,-64.981932,-53.683812,-40.243542,-22.561501,-2.138162,22.425915,43.930079,54.073594,54.855640,52.275314,44.631637,29.323553,12.149931,-7.090424,-29.798779,-48.476458,-58.824848,-58.845387,-47.539567,-31.108927,-14.855050,0.020440,18.615881,38.029578,47.459802,47.404801,41.662794,30.231979,16.210539,-0.503362,-24.411571,-54.915942,-74.818340,-69.520628,-54.124675,-40.532346,-25.445503,-7.866003,11.204303,34.363576,55.409983,62.441708,55.556944,45.653902,32.030810,11.085912,-13.482524,-38.476209,-60.196831,-69.046050,-63.625499,-52.336780,-37.681463,-20.661085,-0.077147,25.168890,47.675600,58.741605,61.465569,61.146203,55.882270,38.172588,15.116031,-8.188461,-34.341885,-54.245164,-58.899143,-52.704586,-40.562168,-24.872469,-8.635970,10.346958,32.376056,52.251187,61.272345,56.139657,43.253400,31.514005,24.622065,16.578349,-2.416191,-26.960406,-39.252942,-37.992226,-30.976458,-19.203595,-2.771339,13.222873,27.881882,43.408822,53.807133,55.880572,51.333230,41.369540,27.394298,13.912673,-0.669780,-23.747104,-51.012926,-66.260445,-65.682418,-57.771147,-46.918467,-34.215731,-20.853803,-1.623044,22.586698,36.386100,34.286370,25.399259,15.437067,5.812655,-4.360550,-21.468550,-46.496765,-64.630028,-66.752584,-62.148079,-55.099563,-43.289477,-28.899662,-10.711346
1,3,2.115198,2.132139,7.153853,18.185113,31.930676,46.895260,65.283530,83.700078,92.549408,89.935915,77.763877,58.037433,35.660575,15.637130,-7.629249,-32.535094,-42.477135,-36.552304,-28.757750,-20.090843,-6.449179,10.069409,27.766854,44.444841,56.204815,61.247968,61.175249,53.687355,37.484738,20.967601,2.135910,-22.010613,-42.672476,-52.250418,-50.845399,-42.258597,-27.891396,-11.045381,5.177669,28.275793,56.646858,72.188565,67.498464,56.673960,47.512329,33.610730,13.466211,-9.224272,-33.763845,-56.355704,-68.403100,-67.309329,-59.377718,-46.811614,-30.714370,-13.789335,6.960156,28.730796,39.319314,37.922486,30.237145,17.260188,-0.011412,-16.580602,-37.350234,-61.623068,-71.201756,-60.988841,-47.186751,-36.797794,-27.024152,-15.567883,2.469089,27.884970,48.978101,55.546958,50.890152,40.906432,24.894680,7.653917,-7.516704,-27.817895,-46.550239,-50.314185,-46.810060,-46.338061,-39.398269,-22.890643,-5.615032,15.328828,39.841304,56.022862,58.774067,55.095570,43.288112,22.152509,2.489657,-14.799482,-36.713878,-56.352445,-62.714039,-57.697471,-44.901506,-25.324871,-5.666260,14.975658,42.302238,65.414851,73.914881,70.303718,58.982755,42.353383,25.416986,10.474943,-12.071384,-40.420645,-57.371510,-58.122669,-51.072835,-40.520747,-26.065171,-7.204902,19.761233,47.534375,61.415629,61.106067,58.706722,54.618591,42.142634,24.779772,4.230889,-24.503170,-53.021595,-68.423616,-71.508497,-64.975538,-47.724076,-27.453483,-7.663166,18.747434,45.578838,57.531537,55.605982,49.302593,37.221752,21.063810,6.329081,-12.082157,-35.469656,-51.533207,-56.672633,-56.687793,-51.178582,-37.844930,-19.686806,0.195785,24.602798,43.734146,47.189703,40.069295,30.672707,20.499675,9.049887,-3.577019,-21.281456,-42.763891,-55.424844,-54.664894,-46.684676,-37.384888,-26.566286,-10.729693,10.224005,32.193851,47.478823,49.877828,43.989698,38.513197,32.147014,22.189765,5.039992,-21.003834,-43.643316,-48.980126,-41.716005,-32.352763,-19.792275,-2.236477,16.312634,34.853004,55.182528,68.899053,68.800381,60.984276,49.348473,30.590678,8.808581,-13.700140,-35.537809,-48.806746,-48.609255,-41.247616,-27.124078,-7.840846,9.699928,25.396154,45.245814,61.446975,65.897799,59.996549,50.641609,38.431488,22.564832,1.740440,-26.542731,-52.485551,-62.688708,-57.052696,-45.677807,-34.364120,-25.211493,-14.119555,4.912304,26.384937,38.599449,39.457201,35.759815,30.409179,18.507449,-0.542947,-23.739306,-50.378655,-72.357746,-80.073057,-75.320798,-65.196914,-52.297088,-34.516747,-10.151071,17.205000,42.556756,57.009706,56.069569,48.042258,37.833867,22.550659,1.399048,-25.114416,-52.283066,-65.100133,-61.958770,-53.452069,-41.873082,-25.114845,-7.870401,7.967177,27.704759,46.349136,51.506989,42.684865,27.889148,10.326032,-2.998513,-13.978763,-35.909275,-63.584918,-74.900900,-69.052804,-61.136617,-51.848765,-35.486143,-14.546149,5.773279,25.673638,42.155816,46.620067,39.065975,27.092420,14.997547,4.178734,-10.967439,-32.845223,-50.659726,-51.816948,-36.623802,-16.688149,2.881180,25.074359,53.780538,87.187827,114.683268,129.152818,131.981330,125.252538,112.449039,98.852279,86.842547,67.998957,39.999445,21.020761