1,3,-2.455580,5.164179,17.387018,30.913810,38.145419,34.282698,27.226484,26.977589,27.836801,21.904878,12.482541,3.470475,-3.530677,-7.320321,-5.797906,-2.462935,-2.514967,-4.653613,-5.178545,-2.289494,2.113745,5.031317,7.363299,9.809705,11.170483,12.945516,11.634617,4.737538,-4.046038,-8.416490,-9.774261,-13.119856,-15.253840,-10.076838,-0.789530,8.407351,16.013019,20.026641,22.747336,27.274184,29.206226,25.342467,16.281882,5.523423,-3.333982,-8.391423,-9.149998,-9.410815,-9.374982,-7.843604,-6.517778,-3.898587,0.412904,2.515654,-0.091350,-3.009086,-2.138497,0.019517,1.864105,-0.105537,-6.590155,-13.090439,-16.007017,-18.240452,-19.891240,-16.559808,-10.746509,-5.951624,-0.975359,5.182159,9.420877,10.240820,10.442092,9.124872,3.989418,-4.163937,-13.634786,-23.322649,-29.326974,-29.347142,-22.782465,-14.032196,-10.595524,-10.571584,-7.859458,-3.458181,3.033257,11.015904,16.690844,17.659188,14.922073,8.480653,1.136097,-4.210416,-5.157707,-3.204597,-5.149914,-8.792500,-9.731213,-7.364936,-1.492577,7.086922,15.974581,19.271380,17.078252,14.996079,14.325690,13.467857,8.423288,-0.207369,-8.023536,-11.124702,-9.910430,-9.480354,-9.534184,-5.871704,0.807221,5.202653,6.714573,9.042885,13.587416,17.047918,15.624065,12.115459,11.321629,12.942037,15.176077,17.723080,17.482317,10.953005,4.234306,4.225338,6.425177,5.632861,6.447397,12.367769,16.392938,14.321852,8.653455,5.586686,5.820491,2.453829,-3.914325,-9.584970,-15.659074,-21.237572,-22.921352,-16.711257,-9.708077,-10.412543,-13.825323,-11.147021,-5.678170,-5.619229,-10.670581,-12.632532,-10.305307,-9.789051,-12.483825,-15.389610,-20.306304,-29.733725,-37.171611,-34.619623,-24.377347,-14.144296,-8.919916,-3.603589,4.105365,8.807681,11.104144,11.195585,9.382872,7.666911,6.848633,5.628992,1.608956,-4.310493,-10.428374,-15.943707,-18.955519,-16.362854,-10.564776,-4.260375,1.951227,8.670870,15.399353,24.137426,34.485790,42.545089,45.015909,43.798773,42.194142,37.502410,30.023904,22.458882,10.907535,-0.330015,-2.453711,0.536434,0.240347,-3.742109,-4.411132,-0.166975,3.090054,0.059596,-6.258755,-9.365450,-10.860980,-12.945870,-14.620681,-18.286000,-22.742440,-22.190635,-15.531234,-6.764902,-1.492313,-0.514144,-0.331079,2.156203,5.647023,7.040713,7.936614,8.134080,4.332482,-1.868790,-5.970325,-7.072686,-8.876412,-12.082011,-12.189961,-10.000708,-10.014663,-12.932201,-13.753659,-8.479336,-2.809492,-1.344345,2.415927,16.171188,31.221347,33.466352,24.506199,15.340924,7.570608,-2.204622,-10.784597,-14.769102,-13.557880,-10.950628,-11.046999,-11.846605,-7.849014,-0.853752,3.039695,5.331882,7.923400,7.114881,2.906989,-1.899574,-2.904077,-1.805758,-2.803824,-4.397458,-6.885818,-10.468041,-11.143245,-8.510532,-3.868988,3.482308,10.644286,11.817881,9.204028,7.303660,1.217704,-9.552922,-16.307313,-16.944582,-15.063860,-15.564303,-16.845095,-15.305453,-10.744629,-5.561913,0.343358,5.671804,8.623989,11.000426,15.601568,21.527804,24.979461,26.256796,25.259995,19.189172,12.544364,10.725528,11.432544,9.065209,5.323238,3.806261
1,3,2.693347,2.593308,-0.000045,-0.388828,1.224827,-1.361222,-9.649117,-14.740995,-13.338978,-11.745168,-12.461639,-11.690431,-8.333542,-2.592922,1.929533,4.131988,5.712672,2.969889,-5.297984,-14.592487,-19.515076,-19.867114,-19.049875,-17.164535,-13.912171,-12.993758,-12.010171,-10.162178,-9.950443,-8.075525,-2.237876,3.662153,8.924320,12.848482,12.234600,9.082730,3.793029,-1.234254,-6.998780,-14.900122,-19.637768,-20.911127,-19.819534,-19.762252,-23.838479,-27.447351,-23.187949,-11.559307,0.739589,9.809786,15.552367,19.468438,20.759127,22.925574,23.268929,15.390341,3.090959,-7.228078,-8.265645,-2.020635,3.108036,6.221423,8.820553,13.206415,19.779961,24.242102,25.993705,26.135592,25.868538,21.593269,14.210461,8.920742,4.724691,-2.277164,-7.184342,-6.896410,-2.712979,-0.033705,-3.458286,-7.686460,-6.218000,-0.552716,6.509553,15.568937,23.625542,22.479453,13.130735,1.879438,-8.074400,-10.430746,-7.289575,-9.050862,-13.414577,-13.780687,-13.949149,-14.819908,-15.292895,-13.968021,-8.145180,-0.824243,2.694940,1.612548,-3.071216,-7.856122,-12.541912,-17.728299,-23.614970,-27.801582,-28.687765,-22.973125,-15.557240,-13.439666,-8.019939,5.702428,19.727937,24.657106,19.990465,15.528554,17.771920,19.321115,13.976691,5.539201,-2.090810,-9.812800,-16.626239,-20.430609,-17.525409,-10.910154,-7.284380,-4.747648,3.100456,14.060315,19.532285,15.616685,10.113800,12.223877,18.247125,18.083711,10.533761,1.497356,-3.125466,-3.234711,-5.930431,-8.012725,-5.581736,-2.937654,1.519288,7.688810,9.670589,8.164259,6.269411,6.685595,6.012324,3.549070,2.195272,1.450334,-0.886371,-2.115501,1.262260,4.146205,3.635605,3.929709,4.927755,2.828964,-0.167449,1.837719,6.043673,6.549614,5.254746,4.658280,3.059435,-1.342558,-9.648453,-15.658984,-17.774868,-19.496796,-19.325434,-13.661419,-7.005358,-4.657827,-3.219365,4.209522,12.828367,14.436742,10.834257,4.520562,-2.704650,-9.741645,-18.590649,-26.551842,-29.725367,-26.711321,-18.309761,-11.620705,-9.544129,-6.479970,2.071869,13.111527,21.139175,25.055017,27.359294,26.452273,24.934255,22.605568,16.566569,8.217639,2.659186,2.691644,3.315468,1.131136,-0.160849,-1.459968,-4.565678,-7.677419,-6.394612,-0.516660,4.657048,6.527142,6.294261,2.159060,-4.177796,-7.615633,-8.953767,-14.091512,-24.128173,-31.563058,-29.095474,-23.724730,-25.650144,-27.571040,-18.786756,-5.396647,2.899914,7.303532,9.414785,7.034219,5.462349,9.399651,14.246558,13.603463,8.070707,2.148581,0.837323,2.537112,4.048070,5.370255,8.503661,10.348218,8.303788,4.170164,1.047071,0.634164,3.131026,4.237173,1.552052,0.775039,3.705447,5.242519,5.285440,4.533332,5.285257,6.140228,6.697201,11.455091,21.512767,30.169061,32.422776,30.472685,28.817543,26.956090,21.387059,13.809183,6.121203,-2.078128,-9.090031,-15.715701,-23.156292,-27.812914,-28.286625,-24.978420,-20.689228,-16.319900,-12.571207,-9.543831,-7.438357,-4.955268,-1.694942,-3.857643,-13.443517,-20.552585,-17.684744,-12.839758,-13.617256,-14.116729,-14.137526,-15.978852,-16.039767,-13.119179,-8.115850,-1.028389
1,3,5.626343,16.111095,26.734333,37.293708,47.986767,54.010959,50.963642,40.842087,28.643485,17.664954,8.103548,0.656261,-2.579963,-1.908219,0.868363,2.846631,2.223419,1.595556,3.959876,5.313226,3.452480,1.974542,0.376362,-2.045060,-6.892659,-14.969304,-23.077782,-29.120794,-35.600943,-41.520734,-37.182560,-23.688696,-11.941300,-4.442400,1.206110,3.502467,0.545051,-3.167615,-1.736864,1.336117,-2.549708,-10.495227,-13.301178,-14.568152,-20.296588,-23.386781,-20.738881,-15.052893,-8.628685,-5.065988,-3.764401,-1.423394,3.357684,7.779605,9.143251,6.649614,4.099785,5.394951,5.336387,1.525453,-2.436416,-5.947719,-6.506888,-5.312300,-5.462285,-7.955130,-7.089084,0.637630,11.326814,22.480284,29.199868,27.787397,24.444700,25.273600,27.375906,23.353412,13.107888,0.941079,-8.145299,-12.349565,-12.370074,-11.405221,-8.853446,-4.413230,1.816894,10.138346,17.552493,21.660650,19.664078,12.863979,6.761503,1.757740,-3.146275,-10.149568,-18.451221,-25.850373,-27.746223,-21.338027,-13.625098,-11.506805,-11.882575,-8.051890,3.785712,16.430640,20.783247,18.043835,15.512653,16.089899,13.475724,3.870228,-4.826533,-6.414548,-6.793850,-7.464510,-2.226642,4.919607,7.974054,9.036485,11.206654,12.584290,11.169096,9.160753,5.558921,1.263243,-1.426651,-5.911145,-13.190634,-18.265517,-20.736202,-23.603098,-24.366614,-22.827161,-17.785145,-9.340969,-2.295029,3.452285,8.800591,11.849517,11.798700,10.247789,8.096445,4.844342,-0.208836,-2.263388,-1.119600,-1.677742,-4.838070,-8.200826,-7.466231,-3.334495,2.894191,8.719654,8.741735,6.960296,8.275214,8.986384,7.193720,5.297154,3.996635,-0.207868,-2.516367,0.371144,-0.445308,-7.065678,-11.589902,-9.117893,-4.049548,1.615258,8.476671,12.734854,12.589992,11.342289,10.491970,11.639278,13.884476,8.727846,-3.230312,-12.689677,-18.649915,-23.910670,-25.171572,-21.232236,-15.392262,-7.951236,-2.308733,-1.564320,-0.517551,3.432021,6.084853,5.241400,-1.597880,-10.232534,-13.062110,-14.886168,-17.304273,-15.716005,-10.020959,-5.118746,-1.009001,4.008622,9.334440,14.968743,17.511791,15.263810,11.624990,9.195485,6.775411,4.964841,3.463809,2.372304,1.990274,1.517621,4.054204,9.899837,15.454291,19.117292,19.188526,15.067637,12.454227,14.747864,18.248077,18.654362,12.966186,3.582984,-3.795832,-7.870873,-10.442769,-12.412167,-14.379725,-15.746111,-16.311999,-15.478064,-12.344982,-4.913424,6.215947,11.642478,6.965530,0.084479,0.798722,3.307677,2.510786,-1.792484,-10.602633,-18.620134,-22.345426,-24.578915,-23.620969,-20.471923,-15.732072,-9.101673,-2.480945,4.829932,11.530817,12.621609,9.202245,3.872698,-0.767016,-2.716847,-4.176707,-7.246473,-8.825985,-8.415049,-7.913436,-8.420886,-8.337104,-4.361764,3.005489,12.865043,21.117315,24.462751,24.901826,25.235046,25.062943,23.986081,22.105054,17.520486,8.533031,0.843378,-3.947750,-7.039598,-6.931371,-4.322237,-2.611325,-3.297721,-5.380468,-5.858564,-4.530962,-2.096563,1.745778,3.597262,-0.740859,-8.967279,-15.880634,-19.879504,-23.362409,-28.027812,-28.074113,-19.899653,-10.402710,-2.981502
1,3,5.678285,7.570938,11.657754,14.539493,16.016915,17.190783,20.861859,24.630901,24.298666,21.065903,20.533356,21.901763,18.771855,12.544354,6.819976,1.899429,-5.116589,-12.627383,-15.532268,-15.230564,-16.221598,-15.704701,-14.279210,-13.644468,-9.499822,-1.644622,5.421776,9.400012,9.890723,7.194541,2.612091,-2.956004,-9.609128,-18.746672,-27.068032,-28.172615,-24.259834,-17.229115,-7.079892,2.688384,12.576250,20.384226,22.212812,19.862490,14.933718,6.926933,-0.057458,-4.219072,-9.457561,-15.872605,-20.663920,-21.231258,-19.874411,-20.393210,-21.187530,-15.257290,-4.702458,3.476950,7.980866,12.209169,15.361685,19.438180,24.138364,24.761888,20.108345,17.477264,17.768116,12.580311,3.213199,-0.033929,2.338158,3.428636,2.536624,3.861188,6.901343,10.756054,15.424241,16.604780,12.496507,7.498221,3.008689,1.226648,-3.249191,-12.520137,-17.487517,-15.452670,-13.616945,-15.681695,-14.548273,-9.818027,-3.692298,4.127587,11.640315,15.344596,12.439163,5.122779,1.094238,0.352370,-3.003956,-8.575825,-12.464279,-14.270308,-13.494852,-10.538792,-8.502954,-9.288101,-3.294935,10.375911,19.123865,20.148429,18.349174,14.625740,7.777842,0.005269,-6.692117,-14.014377,-18.961500,-18.933397,-17.129906,-15.050790,-13.795737,-12.164366,-7.456221,-2.070780,0.992547,2.534416,4.355545,6.856710,7.438747,2.302543,-5.750965,-11.920793,-13.005915,-12.305265,-15.317745,-22.342225,-26.677551,-23.022547,-14.276021,-3.336771,10.096412,23.024740,27.349420,23.171652,20.992624,21.113505,18.035444,13.359565,9.886960,4.318692,-3.244216,-9.300780,-10.250057,-6.491150,-2.623212,-2.845443,1.142905,12.342525,20.254057,22.778084,25.115133,28.065674,24.230121,13.408829,7.002100,5.010176,0.733249,-5.228545,-9.175120,-11.706443,-15.322527,-16.923430,-16.309259,-14.980159,-10.036317,-1.277957,6.394659,8.381240,5.881459,2.494964,-2.578625,-9.739713,-16.088724,-20.426105,-20.952317,-16.067837,-8.673157,-2.668777,2.044795,5.367042,9.697446,14.835485,18.880638,21.932387,24.290217,24.253621,17.622102,8.195175,0.472367,-4.546775,-9.962688,-15.375785,-15.086457,-8.895067,-5.601951,-5.007412,0.388277,7.884880,10.882196,9.780064,8.278362,4.177010,-3.224032,-6.524757,-7.425114,-10.625010,-14.624301,-18.922801,-21.720277,-21.016450,-17.710994,-11.903540,-4.793677,2.519053,9.135144,14.555132,17.679590,18.009126,14.344382,7.286028,5.034766,5.291319,2.056437,-3.969114,-9.284551,-12.589076,-14.981886,-13.562167,-9.829108,-5.981897,-2.519730,-2.041815,-2.947372,-1.435645,-0.605902,-2.657439,-3.889590,-1.801727,3.006731,5.636314,2.687497,-1.739308,-2.143756,1.074426,1.715433,-2.220626,-2.933728,1.876054,7.308546,9.463471,9.040441,9.038952,7.658378,5.097971,2.556850,-3.566001,-11.371735,-16.161652,-14.137197,-6.599971,0.548271,2.005614,0.669978,1.039116,5.410610,12.681868,17.950123,21.512426,23.765648,23.606473,22.731403,19.536749,12.718634,5.772991,-2.204441,-11.318113,-16.572670,-18.472951,-17.523988,-13.831009,-7.499436,-1.734885,-2.643169,-5.730295,-6.002466,-5.466080,-3.327732,0.705790,2.427499,0.030214